a1 (ps LAG)  QIVTFFQEVPHVIEEVMNIVLIALSVLAVLKGLYNFATCGLVGLVTFLLLCGR    Length:  53  aa.


Amphipathic Index:   2.24017      Mean hydrophobicity:    2.4570


Power Spectrum Data


 Frequency      Period         Power        Norm. Power    Norm. Power
                             (100ø=1000)  (Max.Power=1000)
    1.00      360.0000         53.2269         51.8938        17.4769
    2.00      180.0000        184.2927        179.6770        60.5119
    3.00      120.0000        322.7455        314.6622       105.9725
    4.00       90.0000        394.3719        384.4947       129.4908
    5.00       72.0000        361.8953        352.8315       118.8272
    6.00       60.0000        246.8015        240.6203        81.0365
    7.00       51.4286        120.6216        117.6006        39.6057
    8.00       45.0000         69.9374         68.1858        22.9637
    9.00       40.0000        152.9575        149.1266        50.2231
   10.00       36.0000        369.6462        360.3883       121.3722
   11.00       32.7273        659.9955        643.4657       216.7075
   12.00       30.0000        930.3298        907.0294       305.4709
   13.00       27.6923       1093.5697       1066.1809       359.0702
   14.00       25.7143       1103.5173       1075.8794       362.3365
   15.00       24.0000        968.0841        943.8381       317.8674
   16.00       22.5000        738.4348        719.9405       242.4628
   17.00       21.1765        483.0319        470.9342       158.6020
   18.00       20.0000        261.0810        254.5421        85.7251
   19.00       18.9474        106.7898        104.1152        35.0641
   20.00       18.0000         27.5354         26.8458         9.0412
   21.00       17.1429         11.3329         11.0491         3.7211
   22.00       16.3636         36.3701         35.4592        11.9420
   23.00       15.6522         78.0790         76.1235        25.6370
   24.00       15.0000        113.7287        110.8803        37.3425
   25.00       14.4000        126.7317        123.5577        41.6120
   26.00       13.8462        111.2763        108.4893        36.5372
   27.00       13.3333         74.7467         72.8746        24.5428
   28.00       12.8571         34.4270         33.5648        11.3040
   29.00       12.4138          8.0896          7.8870         2.6562
   30.00       12.0000          3.2754          3.1934         1.0755
   31.00       11.6129         12.8502         12.5284         4.2193
   32.00       11.2500         21.3898         20.8541         7.0233
   33.00       10.9091         19.1860         18.7055         6.2997
   34.00       10.5882         13.6423         13.3006         4.4794
   35.00       10.2857         27.6289         26.9369         9.0719
   36.00       10.0000         82.7374         80.6652        27.1666
   37.00        9.7297        177.4179        172.9744        58.2546
   38.00        9.4737        276.8667        269.9325        90.9083
   39.00        9.2308        326.7133        318.5306       107.2753
   40.00        9.0000        287.2693        280.0745        94.3240
   41.00        8.7805        168.7684        164.5415        55.4146
   42.00        8.5714         42.5024         41.4379        13.9555
   43.00        8.3721         14.0223         13.6711         4.6042
   44.00        8.1818        167.5153        163.3198        55.0031
   45.00        8.0000        511.0672        498.2674       167.8073
   46.00        7.8261        956.5759        932.6182       314.0887
   47.00        7.6596       1350.9392       1317.1045       443.5767
   48.00        7.5000       1545.8191       1507.1035       507.5649
   49.00        7.3469       1469.4619       1432.6587       482.4932
   50.00        7.2000       1161.0371       1131.9585       381.2229
   51.00        7.0588        748.4870        729.7409       245.7634
   52.00        6.9231        382.9210        373.3306       125.7309
   53.00        6.7925        166.7215        162.5459        54.7425
   54.00        6.6667        114.2029        111.3427        37.4982
   55.00        6.5455        162.6214        158.5485        53.3962
   56.00        6.4286        221.2812        215.7391        72.6570
   57.00        6.3158        226.1904        220.5254        74.2689
   58.00        6.2069        168.7300        164.5041        55.4020
   59.00        6.1017         86.5592         84.3913        28.4214
   60.00        6.0000         29.3209         28.5865         9.6274
   61.00        5.9016         24.8765         24.2535         8.1681
   62.00        5.8065         66.8154         65.1420        21.9386
   63.00        5.7143        126.4725        123.3050        41.5269
   64.00        5.6250        175.9401        171.5336        57.7694
   65.00        5.5385        203.7926        198.6885        66.9147
   66.00        5.4545        214.1271        208.7642        70.3080
   67.00        5.3731        213.8667        208.5103        70.2225
   68.00        5.2941        201.8464        196.7911        66.2756
   69.00        5.2174        170.0561        165.7970        55.8374
   70.00        5.1429        115.9100        113.0070        38.0587
   71.00        5.0704         54.1466         52.7905        17.7789
   72.00        5.0000         16.1622         15.7574         5.3068
   73.00        4.9315         33.9811         33.1300        11.1576
   74.00        4.8649        118.4481        115.4815        38.8921
   75.00        4.8000        247.0584        240.8707        81.1209
   76.00        4.7368        371.4391        362.1363       121.9609
   77.00        4.6753        441.4967        430.4393       144.9641
   78.00        4.6154        431.8563        421.0403       141.7987
   79.00        4.5570        354.4888        345.6105       116.3953
   80.00        4.5000        250.4017        244.1303        82.2186
   81.00        4.4444        166.5977        162.4252        54.7018
   82.00        4.3902        133.0103        129.6790        43.6735
   83.00        4.3373        152.5539        148.7331        50.0906
   84.00        4.2857        207.7056        202.5035        68.1995
   85.00        4.2353        276.4473        269.5236        90.7706
   86.00        4.1860        345.9772        337.3121       113.6005
   87.00        4.1379        416.3096        405.8830       136.6940
   88.00        4.0909        493.8527        481.4840       162.1550
   89.00        4.0449        581.1749        566.6192       190.8270
   90.00        4.0000        669.8685        653.0914       219.9492
   91.00        3.9560        739.7963        721.2679       242.9098
   92.00        3.9130        764.1057        744.9684       250.8917
   93.00        3.8710        718.1523        700.1659       235.8031
   94.00        3.8298        591.2499        576.4418       194.1351
   95.00        3.7895        399.8963        389.8808       131.3047
   96.00        3.7500        197.8701        192.9144        64.9700
   97.00        3.7113         74.5614         72.6940        24.4820
   98.00        3.6735        133.2876        129.9494        43.7646
   99.00        3.6364        449.8436        438.5771       147.7047
  100.00        3.6000       1025.6887       1000.0000       336.7817
  101.00        3.5644       1761.0415       1716.9356       578.2325
  102.00        3.5294       2470.7625       2408.8814       811.2671
  103.00        3.4951       2947.0232       2873.2140       967.6459
  104.00        3.4615       3045.5596       2969.2825      1000.0000
  105.00        3.4286       2753.1111       2684.1585       903.9754
  106.00        3.3962       2196.9390       2141.9159       721.3581
  107.00        3.3645       1585.3669       1545.6609       520.5503
  108.00        3.3333       1106.9077       1079.1848       363.4497
  109.00        3.3028        842.0555        820.9659       276.4863
  110.00        3.2727        737.9545        719.4722       242.3051
  111.00        3.2432        661.6149        645.0446       217.2392
  112.00        3.2143        500.8918        488.3468       164.4663
  113.00        3.1858        252.1070        245.7929        82.7785
  114.00        3.1579         38.6759         37.7072        12.6991
  115.00        3.1304         44.9061         43.7814        14.7448
  116.00        3.1034        400.4839        390.4536       131.4976
  117.00        3.0769       1083.1722       1056.0438       355.6562
  118.00        3.0508       1899.8800       1852.2969       623.8197
  119.00        3.0252       2562.9124       2498.7234       841.5243
  120.00        3.0000       2823.9041       2753.1784       927.2201
  121.00        2.9752       2594.4143       2529.4363       851.8678
  122.00        2.9508       1988.7765       1938.9669       653.0086
  123.00        2.9268       1267.2701       1235.5309       416.1042
  124.00        2.9032        711.1241        693.3137       233.4954
  125.00        2.8800        495.1510        482.7498       162.5813
  126.00        2.8571        621.0154        605.4618       203.9085
  127.00        2.8346        938.3911        914.8888       308.1178
  128.00        2.8125       1234.4026       1203.4866       405.3122
  129.00        2.7907       1339.9320       1306.3730       439.9625
  130.00        2.7692       1199.6833       1169.6369       393.9123
  131.00        2.7481        878.3820        856.3826       288.4140
  132.00        2.7273        511.0085        498.2101       167.7881
  133.00        2.7068        230.5694        224.7947        75.7067
  134.00        2.6866        111.2140        108.4286        36.5168
  135.00        2.6667        149.4222        145.6799        49.0623
  136.00        2.6471        283.1534        276.0617        92.9725
  137.00        2.6277        431.4253        420.6201       141.6571
  138.00        2.6087        531.9940        518.6700       174.6786
  139.00        2.5899        561.5752        547.5104       184.3915
  140.00        2.5714        534.8295        521.4345       175.6096
  141.00        2.5532        488.1068        475.8820       160.2683
  142.00        2.5352        458.1881        446.7126       150.4446
  143.00        2.5175        465.2664        453.6136       152.7688
  144.00        2.5000        505.6474        492.9833       166.0277
  145.00        2.4828        555.3683        541.4589       182.3534
  146.00        2.4658        582.1879        567.6068       191.1596
  147.00        2.4490        560.6564        546.6145       184.0898
  148.00        2.4324        483.8168        471.6994       158.8597
  149.00        2.4161        366.3356        357.1606       120.2852
  150.00        2.4000        237.5908        231.6403        78.0122
  151.00        2.3841        128.1878        124.9773        42.0901
  152.00        2.3684         56.8315         55.4081        18.6604
  153.00        2.3529         24.3019         23.6933         7.9795
  154.00        2.3377         17.1624         16.7326         5.6352
  155.00        2.3226         18.1330         17.6789         5.9539
  156.00        2.3077         16.3356         15.9265         5.3637
  157.00        2.2930         11.2981         11.0151         3.7097
  158.00        2.2785          9.2047          8.9742         3.0223
  159.00        2.2642         15.2488         14.8669         5.0069
  160.00        2.2500         28.3550         27.6448         9.3103
  161.00        2.2360         42.3523         41.2916        13.9062
  162.00        2.2222         52.5048         51.1898        17.2398
  163.00        2.2086         61.9344         60.3832        20.3360
  164.00        2.1951         82.1597         80.1020        26.9769
  165.00        2.1818        126.0839        122.9261        41.3993
  166.00        2.1687        197.4738        192.5280        64.8399
  167.00        2.1557        284.1575        277.0407        93.3022
  168.00        2.1429        360.4042        351.3778       118.3376
  169.00        2.1302        398.2229        388.2493       130.7552
  170.00        2.1176        381.3985        371.8462       125.2310
  171.00        2.1053        314.0269        306.1620       103.1097
  172.00        2.0930        218.5160        213.0432        71.7490
  173.00        2.0809        124.4162        121.3002        40.8517
  174.00        2.0690         54.8116         53.4388        17.9972
  175.00        2.0571         17.9232         17.4743         5.8850
  176.00        2.0455          7.6873          7.4948         2.5241
  177.00        2.0339         11.2506         10.9688         3.6941
  178.00        2.0225         17.5112         17.0726         5.7497
  179.00        2.0112         21.3820         20.8465         7.0207
  180.00        2.0000         22.4962         21.9328         7.3866




a1 (ps LAJ)  QIVTFFQEVPHVIEEVMNIVLIALSVLAVLKGLYNFATCGLVGLVTFLLLCGR    Length:  53  aa.


Amphipathic Index:   2.24017      Mean hydrophobicity:    2.4570


Power Spectrum Data


 Frequency      Period         Power        Norm. Power    Norm. Power
                             (100ø=1000)  (Max.Power=1000)
    1.00      360.0000         53.2269         51.8938        17.4769
    2.00      180.0000        184.2927        179.6770        60.5119
    3.00      120.0000        322.7455        314.6622       105.9725
    4.00       90.0000        394.3719        384.4947       129.4908
    5.00       72.0000        361.8953        352.8315       118.8272
    6.00       60.0000        246.8015        240.6203        81.0365
    7.00       51.4286        120.6216        117.6006        39.6057
    8.00       45.0000         69.9374         68.1858        22.9637
    9.00       40.0000        152.9575        149.1266        50.2231
   10.00       36.0000        369.6462        360.3883       121.3722
   11.00       32.7273        659.9955        643.4657       216.7075
   12.00       30.0000        930.3298        907.0294       305.4709
   13.00       27.6923       1093.5697       1066.1809       359.0702
   14.00       25.7143       1103.5173       1075.8794       362.3365
   15.00       24.0000        968.0841        943.8381       317.8674
   16.00       22.5000        738.4348        719.9405       242.4628
   17.00       21.1765        483.0319        470.9342       158.6020
   18.00       20.0000        261.0810        254.5421        85.7251
   19.00       18.9474        106.7898        104.1152        35.0641
   20.00       18.0000         27.5354         26.8458         9.0412
   21.00       17.1429         11.3329         11.0491         3.7211
   22.00       16.3636         36.3701         35.4592        11.9420
   23.00       15.6522         78.0790         76.1235        25.6370
   24.00       15.0000        113.7287        110.8803        37.3425
   25.00       14.4000        126.7317        123.5577        41.6120
   26.00       13.8462        111.2763        108.4893        36.5372
   27.00       13.3333         74.7467         72.8746        24.5428
   28.00       12.8571         34.4270         33.5648        11.3040
   29.00       12.4138          8.0896          7.8870         2.6562
   30.00       12.0000          3.2754          3.1934         1.0755
   31.00       11.6129         12.8502         12.5284         4.2193
   32.00       11.2500         21.3898         20.8541         7.0233
   33.00       10.9091         19.1860         18.7055         6.2997
   34.00       10.5882         13.6423         13.3006         4.4794
   35.00       10.2857         27.6289         26.9369         9.0719
   36.00       10.0000         82.7374         80.6652        27.1666
   37.00        9.7297        177.4179        172.9744        58.2546
   38.00        9.4737        276.8667        269.9325        90.9083
   39.00        9.2308        326.7133        318.5306       107.2753
   40.00        9.0000        287.2693        280.0745        94.3240
   41.00        8.7805        168.7684        164.5415        55.4146
   42.00        8.5714         42.5024         41.4379        13.9555
   43.00        8.3721         14.0223         13.6711         4.6042
   44.00        8.1818        167.5153        163.3198        55.0031
   45.00        8.0000        511.0672        498.2674       167.8073
   46.00        7.8261        956.5759        932.6182       314.0887
   47.00        7.6596       1350.9392       1317.1045       443.5767
   48.00        7.5000       1545.8191       1507.1035       507.5649
   49.00        7.3469       1469.4619       1432.6587       482.4932
   50.00        7.2000       1161.0371       1131.9585       381.2229
   51.00        7.0588        748.4870        729.7409       245.7634
   52.00        6.9231        382.9210        373.3306       125.7309
   53.00        6.7925        166.7215        162.5459        54.7425
   54.00        6.6667        114.2029        111.3427        37.4982
   55.00        6.5455        162.6214        158.5485        53.3962
   56.00        6.4286        221.2812        215.7391        72.6570
   57.00        6.3158        226.1904        220.5254        74.2689
   58.00        6.2069        168.7300        164.5041        55.4020
   59.00        6.1017         86.5592         84.3913        28.4214
   60.00        6.0000         29.3209         28.5865         9.6274
   61.00        5.9016         24.8765         24.2535         8.1681
   62.00        5.8065         66.8154         65.1420        21.9386
   63.00        5.7143        126.4725        123.3050        41.5269
   64.00        5.6250        175.9401        171.5336        57.7694
   65.00        5.5385        203.7926        198.6885        66.9147
   66.00        5.4545        214.1271        208.7642        70.3080
   67.00        5.3731        213.8667        208.5103        70.2225
   68.00        5.2941        201.8464        196.7911        66.2756
   69.00        5.2174        170.0561        165.7970        55.8374
   70.00        5.1429        115.9100        113.0070        38.0587
   71.00        5.0704         54.1466         52.7905        17.7789
   72.00        5.0000         16.1622         15.7574         5.3068
   73.00        4.9315         33.9811         33.1300        11.1576
   74.00        4.8649        118.4481        115.4815        38.8921
   75.00        4.8000        247.0584        240.8707        81.1209
   76.00        4.7368        371.4391        362.1363       121.9609
   77.00        4.6753        441.4967        430.4393       144.9641
   78.00        4.6154        431.8563        421.0403       141.7987
   79.00        4.5570        354.4888        345.6105       116.3953
   80.00        4.5000        250.4017        244.1303        82.2186
   81.00        4.4444        166.5977        162.4252        54.7018
   82.00        4.3902        133.0103        129.6790        43.6735
   83.00        4.3373        152.5539        148.7331        50.0906
   84.00        4.2857        207.7056        202.5035        68.1995
   85.00        4.2353        276.4473        269.5236        90.7706
   86.00        4.1860        345.9772        337.3121       113.6005
   87.00        4.1379        416.3096        405.8830       136.6940
   88.00        4.0909        493.8527        481.4840       162.1550
   89.00        4.0449        581.1749        566.6192       190.8270
   90.00        4.0000        669.8685        653.0914       219.9492
   91.00        3.9560        739.7963        721.2679       242.9098
   92.00        3.9130        764.1057        744.9684       250.8917
   93.00        3.8710        718.1523        700.1659       235.8031
   94.00        3.8298        591.2499        576.4418       194.1351
   95.00        3.7895        399.8963        389.8808       131.3047
   96.00        3.7500        197.8701        192.9144        64.9700
   97.00        3.7113         74.5614         72.6940        24.4820
   98.00        3.6735        133.2876        129.9494        43.7646
   99.00        3.6364        449.8436        438.5771       147.7047
  100.00        3.6000       1025.6887       1000.0000       336.7817
  101.00        3.5644       1761.0415       1716.9356       578.2325
  102.00        3.5294       2470.7625       2408.8814       811.2671
  103.00        3.4951       2947.0232       2873.2140       967.6459
  104.00        3.4615       3045.5596       2969.2825      1000.0000
  105.00        3.4286       2753.1111       2684.1585       903.9754
  106.00        3.3962       2196.9390       2141.9159       721.3581
  107.00        3.3645       1585.3669       1545.6609       520.5503
  108.00        3.3333       1106.9077       1079.1848       363.4497
  109.00        3.3028        842.0555        820.9659       276.4863
  110.00        3.2727        737.9545        719.4722       242.3051
  111.00        3.2432        661.6149        645.0446       217.2392
  112.00        3.2143        500.8918        488.3468       164.4663
  113.00        3.1858        252.1070        245.7929        82.7785
  114.00        3.1579         38.6759         37.7072        12.6991
  115.00        3.1304         44.9061         43.7814        14.7448
  116.00        3.1034        400.4839        390.4536       131.4976
  117.00        3.0769       1083.1722       1056.0438       355.6562
  118.00        3.0508       1899.8800       1852.2969       623.8197
  119.00        3.0252       2562.9124       2498.7234       841.5243
  120.00        3.0000       2823.9041       2753.1784       927.2201
  121.00        2.9752       2594.4143       2529.4363       851.8678
  122.00        2.9508       1988.7765       1938.9669       653.0086
  123.00        2.9268       1267.2701       1235.5309       416.1042
  124.00        2.9032        711.1241        693.3137       233.4954
  125.00        2.8800        495.1510        482.7498       162.5813
  126.00        2.8571        621.0154        605.4618       203.9085
  127.00        2.8346        938.3911        914.8888       308.1178
  128.00        2.8125       1234.4026       1203.4866       405.3122
  129.00        2.7907       1339.9320       1306.3730       439.9625
  130.00        2.7692       1199.6833       1169.6369       393.9123
  131.00        2.7481        878.3820        856.3826       288.4140
  132.00        2.7273        511.0085        498.2101       167.7881
  133.00        2.7068        230.5694        224.7947        75.7067
  134.00        2.6866        111.2140        108.4286        36.5168
  135.00        2.6667        149.4222        145.6799        49.0623
  136.00        2.6471        283.1534        276.0617        92.9725
  137.00        2.6277        431.4253        420.6201       141.6571
  138.00        2.6087        531.9940        518.6700       174.6786
  139.00        2.5899        561.5752        547.5104       184.3915
  140.00        2.5714        534.8295        521.4345       175.6096
  141.00        2.5532        488.1068        475.8820       160.2683
  142.00        2.5352        458.1881        446.7126       150.4446
  143.00        2.5175        465.2664        453.6136       152.7688
  144.00        2.5000        505.6474        492.9833       166.0277
  145.00        2.4828        555.3683        541.4589       182.3534
  146.00        2.4658        582.1879        567.6068       191.1596
  147.00        2.4490        560.6564        546.6145       184.0898
  148.00        2.4324        483.8168        471.6994       158.8597
  149.00        2.4161        366.3356        357.1606       120.2852
  150.00        2.4000        237.5908        231.6403        78.0122
  151.00        2.3841        128.1878        124.9773        42.0901
  152.00        2.3684         56.8315         55.4081        18.6604
  153.00        2.3529         24.3019         23.6933         7.9795
  154.00        2.3377         17.1624         16.7326         5.6352
  155.00        2.3226         18.1330         17.6789         5.9539
  156.00        2.3077         16.3356         15.9265         5.3637
  157.00        2.2930         11.2981         11.0151         3.7097
  158.00        2.2785          9.2047          8.9742         3.0223
  159.00        2.2642         15.2488         14.8669         5.0069
  160.00        2.2500         28.3550         27.6448         9.3103
  161.00        2.2360         42.3523         41.2916        13.9062
  162.00        2.2222         52.5048         51.1898        17.2398
  163.00        2.2086         61.9344         60.3832        20.3360
  164.00        2.1951         82.1597         80.1020        26.9769
  165.00        2.1818        126.0839        122.9261        41.3993
  166.00        2.1687        197.4738        192.5280        64.8399
  167.00        2.1557        284.1575        277.0407        93.3022
  168.00        2.1429        360.4042        351.3778       118.3376
  169.00        2.1302        398.2229        388.2493       130.7552
  170.00        2.1176        381.3985        371.8462       125.2310
  171.00        2.1053        314.0269        306.1620       103.1097
  172.00        2.0930        218.5160        213.0432        71.7490
  173.00        2.0809        124.4162        121.3002        40.8517
  174.00        2.0690         54.8116         53.4388        17.9972
  175.00        2.0571         17.9232         17.4743         5.8850
  176.00        2.0455          7.6873          7.4948         2.5241
  177.00        2.0339         11.2506         10.9688         3.6941
  178.00        2.0225         17.5112         17.0726         5.7497
  179.00        2.0112         21.3820         20.8465         7.0207
  180.00        2.0000         22.4962         21.9328         7.3866




a1 (ps LCA)  QIVTMFEALPHIIDEVINIVIIVLIVITGIKAVYNFATCGIFALISFLLLAGR    Length:  53  aa.


Amphipathic Index:   2.31997      Mean hydrophobicity:    2.4460


Power Spectrum Data


 Frequency      Period         Power        Norm. Power    Norm. Power
                             (100ø=1000)  (Max.Power=1000)
    1.00      360.0000         17.9321         14.4307         6.7074
    2.00      180.0000         61.8841         49.8007        23.1473
    3.00      120.0000        107.4832         86.4961        40.2033
    4.00       90.0000        129.1134        103.9028        48.2939
    5.00       72.0000        115.4312         92.8922        43.1762
    6.00       60.0000         79.5530         64.0195        29.7562
    7.00       51.4286         57.8960         46.5913        21.6556
    8.00       45.0000         96.4478         77.6155        36.0756
    9.00       40.0000        229.6021        184.7701        85.8809
   10.00       36.0000        461.3763        371.2883       172.5743
   11.00       32.7273        758.7603        610.6053       283.8086
   12.00       30.0000       1061.3704        854.1279       396.9976
   13.00       27.6923       1303.1753       1048.7182       487.4429
   14.00       25.7143       1435.6561       1155.3309       536.9964
   15.00       24.0000       1441.3942       1159.9485       539.1426
   16.00       22.5000       1333.1299       1072.8238       498.6472
   17.00       21.1765       1141.8937        918.9283       427.1167
   18.00       20.0000        903.3058        726.9269       337.8747
   19.00       18.9474        650.0634        523.1325       243.1513
   20.00       18.0000        412.1314        331.6589       154.1547
   21.00       17.1429        219.4142        176.5715        82.0702
   22.00       16.3636         99.8636         80.3643        37.3532
   23.00       15.6522         70.5868         56.8041        26.4025
   24.00       15.0000        126.8889        102.1127        47.4618
   25.00       14.4000        238.2797        191.7534        89.1267
   26.00       13.8462        357.4392        287.6459       133.6974
   27.00       13.3333        439.5528        353.7260       164.4114
   28.00       12.8571        461.4546        371.3513       172.6036
   29.00       12.4138        428.9069        345.1588       160.4294
   30.00       12.0000        367.6071        295.8284       137.5007
   31.00       11.6129        304.3607        244.9314       113.8438
   32.00       11.2500        251.4701        202.3682        94.0605
   33.00       10.9091        204.6760        164.7111        76.5575
   34.00       10.5882        154.6348        124.4409        57.8400
   35.00       10.2857        101.5221         81.6990        37.9736
   36.00       10.0000         59.9086         48.2109        22.4084
   37.00        9.7297         48.8186         39.2863        18.2602
   38.00        9.4737         74.3286         59.8152        27.8021
   39.00        9.2308        119.5336         96.1935        44.7106
   40.00        9.0000        152.7261        122.9049        57.1261
   41.00        8.7805        151.0945        121.5919        56.5158
   42.00        8.5714        123.7717         99.6041        46.2959
   43.00        8.3721        115.2667         92.7598        43.1146
   44.00        8.1818        181.8195        146.3175        68.0082
   45.00        8.0000        352.2413        283.4629       131.7532
   46.00        7.8261        598.2000        481.3959       223.7522
   47.00        7.6596        836.2627        672.9746       312.7978
   48.00        7.5000        965.4396        776.9285       361.1154
   49.00        7.3469        920.8613        741.0546       344.4413
   50.00        7.2000        711.9886        572.9662       266.3140
   51.00        7.0588        421.3235        339.0561       157.5929
   52.00        6.9231        162.9525        131.1345        60.9512
   53.00        6.7925         24.6500         19.8369         9.2201
   54.00        6.6667         26.9967         21.7253        10.0979
   55.00        6.5455        121.7844         98.0049        45.5525
   56.00        6.4286        227.4258        183.0188        85.0669
   57.00        6.3158        277.2577        223.1205       103.7062
   58.00        6.2069        251.2986        202.2302        93.9964
   59.00        6.1017        175.5449        141.2681        65.6613
   60.00        6.0000         95.0691         76.5060        35.5599
   61.00        5.9016         42.7112         34.3714        15.9758
   62.00        5.8065         24.3304         19.5797         9.1006
   63.00        5.7143         26.6442         21.4417         9.9661
   64.00        5.6250         36.4901         29.3651        13.6488
   65.00        5.5385         53.5155         43.0661        20.0171
   66.00        5.4545         86.0244         69.2273        32.1768
   67.00        5.3731        135.1408        108.7533        50.5484
   68.00        5.2941        183.1652        147.4005        68.5116
   69.00        5.2174        199.4260        160.4862        74.5938
   70.00        5.1429        162.8129        131.0222        60.8989
   71.00        5.0704         85.2768         68.6257        31.8971
   72.00        5.0000         16.6959         13.4359         6.2450
   73.00        4.9315         22.5825         18.1731         8.4468
   74.00        4.8649        145.0569        116.7332        54.2574
   75.00        4.8000        371.0152        298.5710       138.7754
   76.00        4.7368        629.3930        506.4981       235.4197
   77.00        4.6753        822.3204        661.7546       307.5828
   78.00        4.6154        873.7440        703.1373       326.8174
   79.00        4.5570        767.7462        617.8366       287.1697
   80.00        4.5000        554.8602        446.5186       207.5413
   81.00        4.4444        324.0764        260.7974       121.2183
   82.00        4.3902        158.2855        127.3788        59.2055
   83.00        4.3373         98.9542         79.6325        37.0131
   84.00        4.2857        137.6200        110.7484        51.4757
   85.00        4.2353        233.8384        188.1793        87.4655
   86.00        4.1860        343.8125        276.6799       128.6005
   87.00        4.1379        440.5723        354.5464       164.7928
   88.00        4.0909        515.9072        415.1715       192.9712
   89.00        4.0449        568.4442        457.4502       212.6223
   90.00        4.0000        591.1249        475.7022       221.1058
   91.00        3.9560        569.4805        458.2841       213.0099
   92.00        3.9130        492.2220        396.1110       184.1119
   93.00        3.8710        365.7451        294.3299       136.8042
   94.00        3.8298        221.3020        178.0907        82.7763
   95.00        3.7895        109.0824         87.7830        40.8015
   96.00        3.7500         82.3806         66.2950        30.8138
   97.00        3.7113        180.6112        145.3452        67.5563
   98.00        3.6735        418.7494        336.9847       156.6301
   99.00        3.6364        784.8997        631.6407       293.5858
  100.00        3.6000       1242.6364       1000.0000       464.7988
  101.00        3.5644       1734.5272       1395.8446       648.7869
  102.00        3.5294       2187.2305       1760.1533       818.1171
  103.00        3.4951       2522.0759       2029.6171       943.3635
  104.00        3.4615       2673.4932       2151.4687      1000.0000
  105.00        3.4286       2611.1626       2101.3087       976.6857
  106.00        3.3962       2354.9570       1895.1297       880.8540
  107.00        3.3645       1971.3528       1586.4278       737.3697
  108.00        3.3333       1548.5857       1246.2099       579.2368
  109.00        3.3028       1161.0552        934.3483       434.2840
  110.00        3.2727        842.4946        677.9897       315.1288
  111.00        3.2432        584.5889        470.4425       218.6611
  112.00        3.2143        362.9942        292.1162       135.7753
  113.00        3.1858        174.2872        140.2560        65.1908
  114.00        3.1579         57.8232         46.5327        21.6283
  115.00        3.1304         83.4178         67.1297        31.2018
  116.00        3.1034        306.8362        246.9236       114.7698
  117.00        3.0769        717.8718        577.7007       268.5146
  118.00        3.0508       1215.3903        978.0740       454.6076
  119.00        3.0252       1632.2080       1313.5042       610.5151
  120.00        3.0000       1804.9642       1452.5281       675.1333
  121.00        2.9752       1655.9034       1332.5728       619.3782
  122.00        2.9508       1242.0623        999.5380       464.5840
  123.00        2.9268        740.9655        596.2851       277.1526
  124.00        2.9032        374.5397        301.4073       140.0938
  125.00        2.8800        306.6169        246.7471       114.6878
  126.00        2.8571        565.2013        454.8405       211.4093
  127.00        2.8346       1029.1475        828.1968       384.9449
  128.00        2.8125       1486.0121       1195.8544       555.8316
  129.00        2.7907       1731.4661       1393.3812       647.6419
  130.00        2.7692       1660.4083       1336.1981       621.0632
  131.00        2.7481       1306.2106       1051.1608       488.5782
  132.00        2.7273        812.8925        654.1677       304.0563
  133.00        2.7068        359.4967        289.3016       134.4670
  134.00        2.6866         77.8581         62.6556        29.1222
  135.00        2.6667          3.9570          3.1844         1.4801
  136.00        2.6471         81.5724         65.6446        30.5115
  137.00        2.6277        208.3385        167.6585        77.9274
  138.00        2.6087        294.3922        236.9094       110.1152
  139.00        2.5899        302.0783        243.0947       112.9901
  140.00        2.5714        250.2394        201.3778        93.6002
  141.00        2.5532        188.0761        151.3525        70.3484
  142.00        2.5352        158.8524        127.8350        59.4175
  143.00        2.5175        175.3645        141.1229        65.5938
  144.00        2.5000        218.3361        175.7039        81.6670
  145.00        2.4828        253.7979        204.2415        94.9312
  146.00        2.4658        255.4552        205.5752        95.5511
  147.00        2.4490        218.0172        175.4473        81.5477
  148.00        2.4324        155.7426        125.3324        58.2543
  149.00        2.4161         90.5753         72.8896        33.8790
  150.00        2.4000         39.6032         31.8703        14.8133
  151.00        2.3841          9.6488          7.7648         3.6091
  152.00        2.3684          0.1123          0.0904         0.0420
  153.00        2.3529          9.0701          7.2991         3.3926
  154.00        2.3377         36.2898         29.2039        13.5739
  155.00        2.3226         80.6019         64.8636        30.1485
  156.00        2.3077        134.5889        108.3092        50.3420
  157.00        2.2930        182.4189        146.7999        68.2324
  158.00        2.2785        204.6399        164.6820        76.5440
  159.00        2.2642        188.3917        151.6065        70.4665
  160.00        2.2500        136.7517        110.0496        51.1509
  161.00        2.2360         70.4508         56.6946        26.3516
  162.00        2.2222         19.5286         15.7155         7.3045
  163.00        2.2086          8.8607          7.1306         3.3143
  164.00        2.1951         45.6093         36.7037        17.0598
  165.00        2.1818        115.7532         93.1513        43.2966
  166.00        2.1687        191.5150        154.1199        71.6347
  167.00        2.1557        245.1848        197.3102        91.7095
  168.00        2.1429        261.5053        210.4440        97.8141
  169.00        2.1302        242.3007        194.9892        90.6308
  170.00        2.1176        202.0798        162.6218        75.5864
  171.00        2.1053        158.4994        127.5509        59.2855
  172.00        2.0930        123.7231         99.5650        46.2777
  173.00        2.0809        100.9796         81.2624        37.7707
  174.00        2.0690         86.7194         69.7866        32.4367
  175.00        2.0571         75.4904         60.7502        28.2366
  176.00        2.0455         63.9158         51.4356        23.9072
  177.00        2.0339         51.8422         41.7195        19.3912
  178.00        2.0225         41.1285         33.0978        15.3838
  179.00        2.0112         33.8498         27.2403        12.6613
  180.00        2.0000         31.2924         25.1823        11.7047




a1 (ps LCE)  QIVTMFEALPHIIDEVINIVIIVLIIITSIKAVYNFATCGILALVSFLFLAGR    Length:  53  aa.


Amphipathic Index:   2.25305      Mean hydrophobicity:    2.4375


Power Spectrum Data


 Frequency      Period         Power        Norm. Power    Norm. Power
                             (100ø=1000)  (Max.Power=1000)
    1.00      360.0000         16.3981         13.2569         6.0932
    2.00      180.0000         57.2919         46.3173        21.2884
    3.00      120.0000        101.7270         82.2406        37.7996
    4.00       90.0000        126.5717        102.3262        47.0313
    5.00       72.0000        119.5700         96.6657        44.4297
    6.00       60.0000         89.2068         72.1187        33.1473
    7.00       51.4286         65.8169         53.2093        24.4562
    8.00       45.0000         91.4975         73.9706        33.9985
    9.00       40.0000        201.8049        163.1480        74.9864
   10.00       36.0000        407.2885        329.2700       151.3397
   11.00       32.7273        684.3109        553.2271       254.2753
   12.00       30.0000        980.6762        792.8219       364.3984
   13.00       27.6923       1233.9688        997.5948       458.5165
   14.00       25.7143       1393.6039       1126.6509       517.8335
   15.00       24.0000       1435.8473       1160.8023       533.5302
   16.00       22.5000       1365.6812       1104.0769       507.4580
   17.00       21.1765       1207.4457        976.1524       448.6611
   18.00       20.0000        992.2324        802.1645       368.6924
   19.00       18.9474        750.0825        606.3998       278.7147
   20.00       18.0000        509.4950        411.8982       189.3175
   21.00       17.1429        300.0308        242.5581       111.4850
   22.00       16.3636        151.2178        122.2511        56.1893
   23.00       15.6522         84.5677         68.3683        31.4236
   24.00       15.0000        102.5033         82.8682        38.0880
   25.00       14.4000        182.6179        147.6364        67.8569
   26.00       13.8462        283.8059        229.4412       105.4562
   27.00       13.3333        363.1526        293.5886       134.9398
   28.00       12.8571        394.5147        318.9431       146.5932
   29.00       12.4138        377.5965        305.2657       140.3068
   30.00       12.0000        332.1602        268.5330       123.4236
   31.00       11.6129        281.9497        227.9406       104.7665
   32.00       11.2500        239.7832        193.8513        89.0983
   33.00       10.9091        203.8439        164.7964        75.7440
   34.00       10.5882        166.3773        134.5068        61.8223
   35.00       10.2857        126.3302        102.1309        46.9416
   36.00       10.0000         94.4697         76.3735        35.1029
   37.00        9.7297         85.7981         69.3630        31.8807
   38.00        9.4737        105.0576         84.9332        39.0372
   39.00        9.2308        138.1604        111.6950        51.3375
   40.00        9.0000        159.2819        128.7705        59.1858
   41.00        8.7805        151.4695        122.4546        56.2828
   42.00        8.5714        126.4782        102.2506        46.9966
   43.00        8.3721        126.8601        102.5593        47.1385
   44.00        8.1818        203.6750        164.6599        75.6813
   45.00        8.0000        380.4902        307.6051       141.3820
   46.00        7.8261        626.6196        506.5870       232.8385
   47.00        7.6596        860.0981        695.3413       319.5941
   48.00        7.5000        983.6879        795.2567       365.5174
   49.00        7.3469        935.7212        756.4783       347.6940
   50.00        7.2000        726.1438        587.0467       269.8195
   51.00        7.0588        435.1581        351.8010       161.6955
   52.00        6.9231        173.7335        140.4538        64.5557
   53.00        6.7925         28.2686         22.8536        10.5040
   54.00        6.6667         21.0285         17.0004         7.8137
   55.00        6.5455        107.6995         87.0690        40.0188
   56.00        6.4286        210.3678        170.0706        78.1682
   57.00        6.3158        263.4785        213.0076        97.9030
   58.00        6.2069        244.9155        198.0005        91.0054
   59.00        6.1017        176.6824        142.8379        65.6514
   60.00        6.0000        100.4072         81.1736        37.3092
   61.00        5.9016         47.7614         38.6124        17.7471
   62.00        5.8065         25.6401         20.7286         9.5273
   63.00        5.7143         22.3839         18.0961         8.3174
   64.00        5.6250         25.3202         20.4700         9.4084
   65.00        5.5385         33.1465         26.7971        12.3165
   66.00        5.4545         53.2769         43.0714        19.7966
   67.00        5.3731         88.1730         71.2829        32.7632
   68.00        5.2941        124.5962        100.7291        46.2973
   69.00        5.2174        137.8006        111.4041        51.2038
   70.00        5.1429        110.3473         89.2096        41.0027
   71.00        5.0704         52.0584         42.0863        19.3438
   72.00        5.0000          4.1509          3.3558         1.5424
   73.00        4.9315         20.2606         16.3796         7.5284
   74.00        4.8649        133.5264        107.9486        49.6156
   75.00        4.8000        330.3841        267.0971       122.7637
   76.00        4.7368        549.5176        444.2543       204.1890
   77.00        4.6753        709.3058        573.4341       263.5629
   78.00        4.6154        748.9296        605.4678       278.2863
   79.00        4.5570        659.2713        532.9840       244.9711
   80.00        4.5000        485.8930        392.8174       180.5475
   81.00        4.4444        303.5436        245.3981       112.7903
   82.00        4.3902        178.4407        144.2593        66.3048
   83.00        4.3373        140.3020        113.4263        52.1332
   84.00        4.2857        177.8692        143.7973        66.0924
   85.00        4.2353        255.9375        206.9112        95.1009
   86.00        4.1860        339.4802        274.4508       126.1436
   87.00        4.1379        408.9894        330.6451       151.9717
   88.00        4.0909        460.1447        372.0013       170.9800
   89.00        4.0449        492.9495        398.5221       183.1695
   90.00        4.0000        501.8815        405.7432       186.4885
   91.00        3.9560        475.7296        384.6008       176.7710
   92.00        3.9130        406.9748        329.0164       151.2231
   93.00        3.8710        303.0097        244.9664       112.5919
   94.00        3.8298        190.5545        154.0527        70.8060
   95.00        3.7895        110.1334         89.0367        40.9232
   96.00        3.7500        104.3873         84.3913        38.7881
   97.00        3.7113        206.8377        167.2167        76.8565
   98.00        3.6735        434.9973        351.6710       161.6357
   99.00        3.6364        786.7664        636.0567       292.3456
  100.00        3.6000       1236.9438       1000.0000       459.6219
  101.00        3.5644       1733.6246       1401.5387       644.1779
  102.00        3.5294       2199.4265       1778.1135       817.2600
  103.00        3.4951       2544.2808       2056.9089       945.4004
  104.00        3.4615       2691.2202       2175.7012      1000.0000
  105.00        3.4286       2606.6084       2107.2973       968.5601
  106.00        3.3962       2318.5842       1874.4458       861.5364
  107.00        3.3645       1909.7153       1543.8982       709.6095
  108.00        3.3333       1482.9014       1198.8429       551.0145
  109.00        3.3028       1116.5054        902.6322       414.8696
  110.00        3.2727        834.1662        674.3768       309.9584
  111.00        3.2432        608.6141        492.0305       226.1480
  112.00        3.2143        398.7608        322.3758       148.1710
  113.00        3.1858        197.1620        159.3945        73.2612
  114.00        3.1579         55.2160         44.6391        20.5171
  115.00        3.1304         64.5091         52.1520        23.9702
  116.00        3.1034        299.5810        242.1945       111.3179
  117.00        3.0769        754.2751        609.7893       280.2725
  118.00        3.0508       1313.1931       1061.6433       487.9545
  119.00        3.0252       1783.6471       1441.9790       662.7652
  120.00        3.0000       1979.5203       1600.3316       735.5475
  121.00        2.9752       1815.9524       1468.0961       674.7692
  122.00        2.9508       1362.7501       1101.7074       506.3689
  123.00        2.9268        823.0235        665.3685       305.8180
  124.00        2.9032        442.6447        357.8535       164.4773
  125.00        2.8800        394.1649        318.6603       146.4633
  126.00        2.8571        694.1160        561.1540       257.9187
  127.00        2.8346       1196.1105        966.9885       444.4491
  128.00        2.8125       1662.7526       1344.2426       617.8434
  129.00        2.7907       1878.7363       1518.8534       698.0983
  130.00        2.7692       1747.6974       1412.9157       649.4071
  131.00        2.7481       1326.4133       1072.3311       492.8669
  132.00        2.7273        784.4528        634.1863       291.4859
  133.00        2.7068        315.7852        255.2947       117.3390
  134.00        2.6866         50.4190         40.7609        18.7346
  135.00        2.6667          8.9055          7.1996         3.3091
  136.00        2.6471        115.7037         93.5400        42.9930
  137.00        2.6277        255.4566        206.5224        94.9222
  138.00        2.6087        336.7545        272.2472       125.1308
  139.00        2.5899        329.8405        266.6576       122.5617
  140.00        2.5714        264.1138        213.5213        98.1391
  141.00        2.5532        195.1584        157.7747        72.5167
  142.00        2.5352        165.6198        133.8944        61.5408
  143.00        2.5175        182.8443        147.8194        67.9410
  144.00        2.5000        222.1985        179.6351        82.5642
  145.00        2.4828        248.4850        200.8862        92.3317
  146.00        2.4658        238.9106        193.1459        88.7741
  147.00        2.4490        193.6423        156.5490        71.9533
  148.00        2.4324        130.5127        105.5122        48.4957
  149.00        2.4161         70.9935         57.3943        26.3797
  150.00        2.4000         28.4640         23.0116        10.5766
  151.00        2.3841          5.6674          4.5818         2.1059
  152.00        2.3684          0.2169          0.1754         0.0806
  153.00        2.3529         11.2562          9.1000         4.1826
  154.00        2.3377         40.7466         32.9414        15.1406
  155.00        2.3226         88.3691         71.4415        32.8361
  156.00        2.3077        145.0676        117.2790        53.9040
  157.00        2.2930        192.0594        155.2693        71.3652
  158.00        2.2785        208.2982        168.3975        77.3992
  159.00        2.2642        182.7556        147.7477        67.9081
  160.00        2.2500        123.4349         99.7902        45.8658
  161.00        2.2360         56.2036         45.4375        20.8841
  162.00        2.2222         12.7800         10.3319         4.7488
  163.00        2.2086         14.3539         11.6043         5.3336
  164.00        2.1951         60.4939         48.9059        22.4782
  165.00        2.1818        129.9498        105.0572        48.2866
  166.00        2.1687        192.6922        155.7809        71.6003
  167.00        2.1557        225.7865        182.5358        83.8974
  168.00        2.1429        223.8033        180.9325        83.1605
  169.00        2.1302        198.4041        160.3986        73.7227
  170.00        2.1176        168.6744        136.3638        62.6758
  171.00        2.1053        149.0961        120.5359        55.4009
  172.00        2.0930        142.5389        115.2347        52.9644
  173.00        2.0809        141.5094        114.4024        52.5819
  174.00        2.0690        135.3184        109.3974        50.2814
  175.00        2.0571        117.6073         95.0789        43.7004
  176.00        2.0455         89.5648         72.4081        33.2804
  177.00        2.0339         57.9282         46.8317        21.5249
  178.00        2.0225         30.4526         24.6192        11.3155
  179.00        2.0112         12.4751         10.0854         4.6355
  180.00        2.0000          6.3124          5.1032         2.3456




a1 (ps MOP)  QIVTFFQEVPHILEEVMNIVLMTLSILAILKGIYNVMTCGIIGLITFLFLCGR    Length:  53  aa.


Amphipathic Index:   2.48865      Mean hydrophobicity:    2.4564


Power Spectrum Data


 Frequency      Period         Power        Norm. Power    Norm. Power
                             (100ø=1000)  (Max.Power=1000)
    1.00      360.0000         52.9404         53.7294        15.6914
    2.00      180.0000        185.1986        187.9586        54.8922
    3.00      120.0000        330.5667        335.4931        97.9788
    4.00       90.0000        416.8094        423.0210       123.5409
    5.00       72.0000        402.3977        408.3946       119.2693
    6.00       60.0000        297.7822        302.2200        88.2616
    7.00       51.4286        160.5050        162.8970        47.5731
    8.00       45.0000         66.7681         67.7631        19.7898
    9.00       40.0000         73.9507         75.0528        21.9187
   10.00       36.0000        192.8718        195.7461        57.1665
   11.00       32.7273        383.1624        388.8726       113.5680
   12.00       30.0000        572.9661        581.5049       169.8252
   13.00       27.6923        691.9554        702.2675       205.0932
   14.00       25.7143        700.8333        711.2777       207.7246
   15.00       24.0000        603.8125        612.8110       178.9680
   16.00       22.5000        440.5621        447.1277       130.5811
   17.00       21.1765        264.7122        268.6571        78.4598
   18.00       20.0000        121.3308        123.1390        35.9620
   19.00       18.9474         33.6382         34.1395         9.9702
   20.00       18.0000          2.0866          2.1177         0.6185
   21.00       17.1429         11.9103         12.0878         3.5302
   22.00       16.3636         42.5239         43.1576        12.6039
   23.00       15.6522         74.2766         75.3835        22.0153
   24.00       15.0000         92.1578         93.5312        27.3153
   25.00       14.4000         88.3675         89.6844        26.1918
   26.00       13.8462         64.6504         65.6139        19.1622
   27.00       13.3333         32.6646         33.1514         9.6817
   28.00       12.8571          9.7249          9.8698         2.8824
   29.00       12.4138          9.8249          9.9713         2.9121
   30.00       12.0000         34.3217         34.8332        10.1728
   31.00       11.6129         69.0626         70.0918        20.4699
   32.00       11.2500         91.9525         93.3229        27.2544
   33.00       10.9091         87.8415         89.1506        26.0359
   34.00       10.5882         61.0331         61.9427        18.0900
   35.00       10.2857         35.3054         35.8316        10.4644
   36.00       10.0000         38.8677         39.4469        11.5203
   37.00        9.7297         82.8880         84.1233        24.5677
   38.00        9.4737        149.0766        151.2983        44.1858
   39.00        9.2308        198.1218        201.0744        58.7226
   40.00        9.0000        197.3296        200.2704        58.4878
   41.00        8.7805        150.9448        153.1943        44.7395
   42.00        8.5714        111.0730        112.7283        32.9217
   43.00        8.3721        156.5273        158.8600        46.3942
   44.00        8.1818        346.9633        352.1340       102.8387
   45.00        8.0000        677.8777        687.9800       200.9206
   46.00        7.8261       1065.6797       1081.5613       315.8638
   47.00        7.6596       1376.8745       1397.3938       408.1009
   48.00        7.5000       1489.5350       1511.7333       441.4931
   49.00        7.3469       1354.4702       1374.6557       401.4603
   50.00        7.2000       1021.5532       1036.7773       302.7849
   51.00        7.0588        615.6138        624.7882       182.4658
   52.00        6.9231        275.1193        279.2193        81.5444
   53.00        6.7925         87.8601         89.1695        26.0414
   54.00        6.6667         58.2810         59.1496        17.2743
   55.00        6.5455        121.1254        122.9305        35.9012
   56.00        6.4286        188.6709        191.4826        55.9214
   57.00        6.3158        201.0607        204.0571        59.5937
   58.00        6.2069        151.2473        153.5013        44.8292
   59.00        6.1017         74.8840         76.0000        22.1954
   60.00        6.0000         17.8006         18.0659         5.2760
   61.00        5.9016          5.1205          5.1968         1.5177
   62.00        5.8065         30.6870         31.1443         9.0955
   63.00        5.7143         68.9676         69.9954        20.4418
   64.00        5.6250         96.4015         97.8382        28.5731
   65.00        5.5385        105.3573        106.9274        31.2275
   66.00        5.4545        102.5003        104.0278        30.3807
   67.00        5.3731         96.5933         98.0328        28.6299
   68.00        5.2941         88.2500         89.5652        26.1570
   69.00        5.2174         70.8641         71.9202        21.0039
   70.00        5.1429         41.3511         41.9673        12.2563
   71.00        5.0704         10.3506         10.5049         3.0679
   72.00        5.0000          1.3561          1.3763         0.4019
   73.00        4.9315         36.9812         37.5323        10.9611
   74.00        4.8649        121.3372        123.1455        35.9639
   75.00        4.8000        231.8087        235.2633        68.7073
   76.00        4.7368        327.8005        332.6857        97.1590
   77.00        4.6753        372.3009        377.8492       110.3487
   78.00        4.6154        352.8826        358.1415       104.5932
   79.00        4.5570        288.7601        293.0634        85.5875
   80.00        4.5000        219.6853        222.9592        65.1140
   81.00        4.4444        184.2209        186.9663        54.6024
   82.00        4.3902        201.1355        204.1330        59.6159
   83.00        4.3373        264.4288        268.3695        78.3758
   84.00        4.2857        352.7770        358.0344       104.5619
   85.00        4.2353        445.1836        451.8181       131.9509
   86.00        4.1860        532.2072        540.1386       157.7444
   87.00        4.1379        616.9671        626.1617       182.8669
   88.00        4.0909        707.6162        718.1617       209.7350
   89.00        4.0449        807.5421        819.5768       239.3527
   90.00        4.0000        908.8604        922.4050       269.3831
   91.00        3.9560        991.0777       1005.8476       293.7520
   92.00        3.9130       1024.2600       1039.5244       303.5872
   93.00        3.8710        976.5427        991.0960       289.4439
   94.00        3.8298        827.2297        839.5577       245.1880
   95.00        3.7895        585.0944        593.8140       173.4200
   96.00        3.7500        305.4664        310.0187        90.5392
   97.00        3.7113         93.2781         94.6682        27.6473
   98.00        3.6735         79.5657         80.7515        23.5830
   99.00        3.6364        370.3145        375.8332       109.7600
  100.00        3.6000        985.3160       1000.0000       292.0443
  101.00        3.5644       1819.2511       1846.3631       539.2198
  102.00        3.5294       2655.0090       2694.5762       786.9356
  103.00        3.4951       3236.4106       3284.6423       959.2611
  104.00        3.4615       3373.8582       3424.1382      1000.0000
  105.00        3.4286       3031.8796       3077.0632       898.6388
  106.00        3.3962       2349.6248       2384.6408       696.4207
  107.00        3.3645       1577.3861       1600.8936       467.5319
  108.00        3.3333        958.1678        972.4472       283.9977
  109.00        3.3028        616.5790        625.7678       182.7519
  110.00        3.2727        516.0059        523.6959       152.9424
  111.00        3.2432        507.5297        515.0933       150.4301
  112.00        3.2143        440.7404        447.3087       130.6339
  113.00        3.1858        269.4412        273.4566        79.8614
  114.00        3.1579         87.3740         88.6761        25.8974
  115.00        3.1304         70.6949         71.7485        20.9537
  116.00        3.1034        360.6003        365.9743       106.8807
  117.00        3.0769        957.0749        971.3380       283.6737
  118.00        3.0508       1690.0605       1715.2472       500.9282
  119.00        3.0252       2289.6812       2323.8039       678.6537
  120.00        3.0000       2518.9780       2556.5179       746.6165
  121.00        2.9752       2295.5989       2329.8098       680.4077
  122.00        2.9508       1734.6367       1760.4877       514.1404
  123.00        2.9268       1089.4640       1105.7001       322.9134
  124.00        2.9032        624.1736        633.4755       185.0029
  125.00        2.8800        487.2585        494.5200       144.4218
  126.00        2.8571        652.0530        661.7704       193.2663
  127.00        2.8346        949.7056        963.8589       281.4895
  128.00        2.8125       1169.6538       1187.0850       346.6814
  129.00        2.7907       1169.5712       1187.0011       346.6569
  130.00        2.7692        937.9415        951.9195       278.0027
  131.00        2.7481        583.5699        592.2667       172.9681
  132.00        2.7273        267.1499        271.1312        79.1823
  133.00        2.7068        117.3407        119.0894        34.7794
  134.00        2.6866        175.0772        177.6863        51.8923
  135.00        2.6667        388.4286        394.2173       115.1289
  136.00        2.6471        651.3136        661.0200       193.0471
  137.00        2.6277        859.2741        872.0797       254.6859
  138.00        2.6087        952.8977        967.0986       282.4356
  139.00        2.5899        931.8984        945.7863       276.2115
  140.00        2.5714        840.5380        853.0644       249.1326
  141.00        2.5532        737.8799        748.8764       218.7051
  142.00        2.5352        669.3788        679.3544       198.4016
  143.00        2.5175        651.0805        660.7834       192.9780
  144.00        2.5000        669.2937        679.2681       198.3764
  145.00        2.4828        691.9393        702.2511       205.0884
  146.00        2.4658        684.7900        694.9953       202.9694
  147.00        2.4490        626.0582        635.3883       185.5615
  148.00        2.4324        514.6312        522.3007       152.5349
  149.00        2.4161        369.7401        375.2503       109.5897
  150.00        2.4000        222.6789        225.9974        66.0013
  151.00        2.3841        104.0416        105.5921        30.8376
  152.00        2.3684         31.8808         32.3559         9.4494
  153.00        2.3529          5.9828          6.0720         1.7733
  154.00        2.3377         10.6632         10.8221         3.1605
  155.00        2.3226         24.2434         24.6047         7.1857
  156.00        2.3077         29.9943         30.4413         8.8902
  157.00        2.2930         22.8884         23.2295         6.7840
  158.00        2.2785          9.3090          9.4477         2.7592
  159.00        2.2642          1.1407          1.1577         0.3381
  160.00        2.2500          8.6478          8.7767         2.5632
  161.00        2.2360         36.4231         36.9659        10.7957
  162.00        2.2222         83.7948         85.0436        24.8365
  163.00        2.2086        147.6889        149.8899        43.7745
  164.00        2.1951        224.5300        227.8761        66.5499
  165.00        2.1818        309.2391        313.8476        91.6574
  166.00        2.1687        392.4619        398.3107       116.3244
  167.00        2.1557        459.3170        466.1621       136.1400
  168.00        2.1429        492.3843        499.7222       145.9410
  169.00        2.1302        478.6248        485.7577       141.8628
  170.00        2.1176        416.6083        422.8169       123.4813
  171.00        2.1053        319.3767        324.1363        94.6622
  172.00        2.0930        210.4576        213.5940        62.3789
  173.00        2.0809        114.6385        116.3469        33.9785
  174.00        2.0690         48.3862         49.1073        14.3415
  175.00        2.0571         14.9949         15.2184         4.4444
  176.00        2.0455          6.5438          6.6413         1.9396
  177.00        2.0339         10.5910         10.7488         3.1391
  178.00        2.0225         17.0190         17.2726         5.0444
  179.00        2.0112         21.1461         21.4612         6.2676
  180.00        2.0000         22.4068         22.7407         6.6413




a1 (ps CD1)  QFISFMQEIPTFLQEALNIALVAVSLIAIIKGVVNLYKSGLFQFFVFLALAGR    Length:  53  aa.


Amphipathic Index:   2.43476      Mean hydrophobicity:    2.0979


Power Spectrum Data


 Frequency      Period         Power        Norm. Power    Norm. Power
                             (100ø=1000)  (Max.Power=1000)
    1.00      360.0000         31.8261         45.7733        11.6919
    2.00      180.0000        115.2482        165.7534        42.3385
    3.00      120.0000        218.6281        314.4375        80.3170
    4.00       90.0000        302.8197        435.5244       111.2463
    5.00       72.0000        336.5721        484.0682       123.6459
    6.00       60.0000        309.4991        445.1310       113.7001
    7.00       51.4286        237.2506        341.2210        87.1583
    8.00       45.0000        156.2460        224.7177        57.3998
    9.00       40.0000        109.6096        157.6438        40.2671
   10.00       36.0000        129.9359        186.8777        47.7343
   11.00       32.7273        226.0948        325.1764        83.0600
   12.00       30.0000        379.4393        545.7210       139.3939
   13.00       27.6923        550.4114        791.6182       202.2036
   14.00       25.7143        692.0633        995.3463       254.2420
   15.00       24.0000        764.7842       1099.9357       280.9573
   16.00       22.5000        747.3500       1074.8613       274.5525
   17.00       21.1765        642.0654        923.4379       235.8744
   18.00       20.0000        474.0910        681.8520       174.1659
   19.00       18.9474        285.7688        411.0013       104.9823
   20.00       18.0000        126.4187        181.8192        46.4422
   21.00       17.1429         38.3953         55.2213        14.1052
   22.00       16.3636         42.2727         60.7979        15.5296
   23.00       15.6522        126.8425        182.4287        46.5979
   24.00       15.0000        250.3844        360.1104        91.9832
   25.00       14.4000        356.0853        512.1326       130.8144
   26.00       13.8462        397.1121        571.1386       145.8863
   27.00       13.3333        359.7079        517.3427       132.1452
   28.00       12.8571        271.1041        389.9101        99.5950
   29.00       12.4138        185.6439        266.9987        68.1996
   30.00       12.0000        154.7177        222.5197        56.8383
   31.00       11.6129        196.7414        282.9594        72.2765
   32.00       11.2500        285.1466        410.1064       104.7538
   33.00       10.9091        362.8215        521.8208       133.2890
   34.00       10.5882        375.6162        540.2226       137.9894
   35.00       10.2857        305.1700        438.9047       112.1097
   36.00       10.0000        180.8025        260.0356        66.4211
   37.00        9.7297         62.6720         90.1368        23.0237
   38.00        9.4737          6.4168          9.2288         2.3573
   39.00        9.2308         31.4769         45.2710        11.5636
   40.00        9.0000        113.1523        162.7390        41.5685
   41.00        8.7805        203.1322        292.1509        74.6243
   42.00        8.5714        264.5290        380.4536        97.1795
   43.00        8.3721        297.7066        428.1706       109.3679
   44.00        8.1818        339.0773        487.6712       124.5662
   45.00        8.0000        432.9438        622.6728       159.0497
   46.00        7.8261        594.7109        855.3311       218.4778
   47.00        7.6596        790.2582       1136.5731       290.3156
   48.00        7.5000        946.5736       1361.3907       347.7409
   49.00        7.3469        988.9949       1422.4023       363.3252
   50.00        7.2000        883.3949       1270.5252       324.5311
   51.00        7.0588        658.1539        946.5767       241.7847
   52.00        6.9231        392.8789        565.0503       144.3312
   53.00        6.7925        180.5135        259.6200        66.3149
   54.00        6.6667         84.4155        121.4089        31.0116
   55.00        6.5455        113.3326        162.9984        41.6348
   56.00        6.4286        225.2678        323.9870        82.7562
   57.00        6.3158        354.3411        509.6240       130.1736
   58.00        6.2069        443.4606        637.7984       162.9133
   59.00        6.1017        465.7133        669.8029       171.0882
   60.00        6.0000        426.9033        613.9852       156.8307
   61.00        5.9016        353.2253        508.0193       129.7637
   62.00        5.8065        274.3887        394.6341       100.8017
   63.00        5.7143        211.2646        303.8471        77.6119
   64.00        5.6250        171.3316        246.4143        62.9418
   65.00        5.5385        150.1189        215.9055        55.1489
   66.00        5.4545        135.5942        195.0157        49.8130
   67.00        5.3731        114.1318        164.1478        41.9284
   68.00        5.2941         77.9933        112.1723        28.6523
   69.00        5.2174         32.9434         47.3802        12.1024
   70.00        5.1429          1.8097          2.6028         0.6648
   71.00        5.0704         18.9631         27.2733         6.9664
   72.00        5.0000        114.4748        164.6411        42.0544
   73.00        4.9315        293.8308        422.5963       107.9441
   74.00        4.8649        524.7141        754.6597       192.7632
   75.00        4.8000        741.4018       1066.3064       272.3674
   76.00        4.7368        868.6864       1249.3710       319.1277
   77.00        4.6753        855.4411       1230.3212       314.2618
   78.00        4.6154        700.6476       1007.6925       257.3956
   79.00        4.5570        457.2873        657.6844       167.9928
   80.00        4.5000        211.2496        303.8256        77.6064
   81.00        4.4444         46.2592         66.5314        16.9942
   82.00        4.3902         13.1075         18.8516         4.8153
   83.00        4.3373        117.6970        169.2754        43.2381
   84.00        4.2857        330.3192        475.0751       121.3487
   85.00        4.2353        606.3555        872.0788       222.7557
   86.00        4.1860        904.0381       1300.2148       332.1148
   87.00        4.1379       1190.2252       1711.8178       437.2508
   88.00        4.0909       1435.6377       2064.7774       527.4075
   89.00        4.0449       1608.7225       2313.7133       590.9933
   90.00        4.0000       1676.9722       2411.8719       616.0661
   91.00        3.9560       1617.1952       2325.8989       594.1059
   92.00        3.9130       1428.0887       2053.9203       524.6343
   93.00        3.8710       1136.0823       1633.9478       417.3604
   94.00        3.8298        790.3547       1136.7119       290.3511
   95.00        3.7895        450.8838        648.4747       165.6403
   96.00        3.7500        177.6029        255.4339        65.2456
   97.00        3.7113         25.5526         36.7505         9.3872
   98.00        3.6735         43.0985         61.9856        15.8330
   99.00        3.6364        265.0092        381.1442        97.3559
  100.00        3.6000        695.2990       1000.0000       255.4307
  101.00        3.5644       1285.4374       1848.7548       472.2287
  102.00        3.5294       1923.9534       2767.0878       706.7991
  103.00        3.4951       2453.9788       3529.3863       901.5135
  104.00        3.4615       2722.0654       3914.9566      1000.0000
  105.00        3.4286       2641.0444       3798.4298       970.2355
  106.00        3.3962       2234.9519       3214.3752       821.0500
  107.00        3.3645       1637.4136       2354.9776       601.5335
  108.00        3.3333       1037.2898       1491.8615       381.0672
  109.00        3.3028        595.6219        856.6414       218.8125
  110.00        3.2727        377.1223        542.3887       138.5427
  111.00        3.2432        334.2541        480.7343       122.7943
  112.00        3.2143        353.1216        507.8702       129.7256
  113.00        3.1858        334.1048        480.5196       122.7394
  114.00        3.1579        258.6136        371.9459        95.0064
  115.00        3.1304        200.6989        288.6512        73.7304
  116.00        3.1034        275.3367        395.9975       101.1499
  117.00        3.0769        554.4481        797.4240       203.6866
  118.00        3.0508       1002.9830       1442.5204       368.4640
  119.00        3.0252       1476.9438       2124.1852       542.5821
  120.00        3.0000       1788.6757       2572.5273       657.1024
  121.00        2.9752       1803.9912       2594.5546       662.7288
  122.00        2.9508       1515.4790       2179.6076       556.7386
  123.00        2.9268       1049.1930       1508.9810       385.4400
  124.00        2.9032        600.1847        863.2037       220.4887
  125.00        2.8800        333.1345        479.1241       122.3830
  126.00        2.8571        303.4599        436.4452       111.4815
  127.00        2.8346        440.9749        634.2234       162.0001
  128.00        2.8125        601.2563        864.7449       220.8824
  129.00        2.7907        651.7734        937.4001       239.4407
  130.00        2.7692        542.7591        780.6125       199.3924
  131.00        2.7481        325.3271        467.8952       119.5148
  132.00        2.7273        112.2101        161.3839        41.2224
  133.00        2.7068          9.0908         13.0747         3.3397
  134.00        2.6866         57.9617         83.3623        21.2933
  135.00        2.6667        222.3288        319.7600        81.6765
  136.00        2.6471        416.7160        599.3335       153.0882
  137.00        2.6277        557.6111        801.9731       204.8485
  138.00        2.6087        604.3289        869.1641       222.0112
  139.00        2.5899        569.2111        818.6566       209.1100
  140.00        2.5714        497.8577        716.0340       182.8970
  141.00        2.5532        437.3114        628.9544       160.6543
  142.00        2.5352        413.3188        594.4475       151.8401
  143.00        2.5175        427.2686        614.5106       156.9648
  144.00        2.5000        468.1693        673.3352       171.9905
  145.00        2.4828        526.0240        756.5436       193.2444
  146.00        2.4658        595.3825        856.2971       218.7245
  147.00        2.4490        668.3853        961.2919       245.5434
  148.00        2.4324        726.3965       1044.7253       266.8549
  149.00        2.4161        740.8591       1065.5259       272.1680
  150.00        2.4000        686.3746        987.1646       252.1521
  151.00        2.3841        558.2990        802.9625       205.1012
  152.00        2.3684        381.8221        549.1481       140.2693
  153.00        2.3529        203.9623        293.3447        74.9292
  154.00        2.3377         71.4354        102.7405        26.2431
  155.00        2.3226          7.7211         11.1047         2.8365
  156.00        2.3077          4.2301          6.0839         1.5540
  157.00        2.2930         31.5462         45.3707        11.5891
  158.00        2.2785         63.1330         90.7998        23.1931
  159.00        2.2642         94.9834        136.6080        34.8939
  160.00        2.2500        146.9755        211.3846        53.9941
  161.00        2.2360        244.0969        351.0675        89.6734
  162.00        2.2222        390.0730        561.0147       143.3004
  163.00        2.2086        552.4109        794.4940       202.9381
  164.00        2.1951        671.5598        965.8576       246.7097
  165.00        2.1818        691.4153        994.4143       254.0039
  166.00        2.1687        593.6971        853.8730       218.1054
  167.00        2.1557        414.6303        596.3338       152.3220
  168.00        2.1429        231.9386        333.5811        85.2068
  169.00        2.1302        127.7823        183.7804        46.9431
  170.00        2.1176        147.8537        212.6476        54.3167
  171.00        2.1053        279.3253        401.7341       102.6152
  172.00        2.0930        459.2299        660.4783       168.7064
  173.00        2.0809        607.2667        873.3893       223.0904
  174.00        2.0690        663.8629        954.7877       243.8821
  175.00        2.0571        613.2982        882.0640       225.3062
  176.00        2.0455        482.4571        693.8843       177.2393
  177.00        2.0339        320.7119        461.2575       117.8193
  178.00        2.0225        175.8195        252.8689        64.5905
  179.00        2.0112         79.4234        114.2291        29.1776
  180.00        2.0000         46.0760         66.2679        16.9269




a1 (ps MC2)  QFISFMQEIPTFLQEALNIALVAVSLIAIIKGVVNLYK     Length:  38  aa.


Amphipathic Index:   2.83787      Mean hydrophobicity:    1.9258


Power Spectrum Data


 Frequency      Period         Power        Norm. Power    Norm. Power
                             (100ø=1000)  (Max.Power=1000)
    1.00      360.0000          7.1084         20.6368         2.5268
    2.00      180.0000         28.2313         81.9598        10.0355
    3.00      120.0000         62.6069        181.7574        22.2550
    4.00       90.0000        108.5373        315.1004        38.5821
    5.00       72.0000        163.0196        473.2708        57.9490
    6.00       60.0000        221.6403        643.4556        78.7871
    7.00       51.4286        278.8981        809.6838        99.1407
    8.00       45.0000        328.9460        954.9805       116.9314
    9.00       40.0000        366.5634       1064.1895       130.3033
   10.00       36.0000        388.0663       1126.6158       137.9470
   11.00       32.7273        391.8886       1137.7125       139.3057
   12.00       30.0000        378.6841       1099.3778       134.6119
   13.00       27.6923        350.9856       1018.9648       124.7658
   14.00       25.7143        312.5977        907.5188       111.1200
   15.00       24.0000        267.9431        777.8798        95.2465
   16.00       22.5000        221.5275        643.1282        78.7470
   17.00       21.1765        177.5615        515.4881        63.1183
   18.00       20.0000        139.6544        405.4381        49.6433
   19.00       18.9474        110.4677        320.7046        39.2683
   20.00       18.0000         91.2828        265.0079        32.4486
   21.00       17.1429         81.5822        236.8456        29.0003
   22.00       16.3636         78.8827        229.0085        28.0407
   23.00       15.6522         79.0780        229.5755        28.1101
   24.00       15.0000         77.4226        224.7696        27.5216
   25.00       14.4000         70.0190        203.2758        24.8898
   26.00       13.8462         55.3710        160.7505        19.6829
   27.00       13.3333         35.3851        102.7284        12.5784
   28.00       12.8571         15.2547         44.2867         5.4226
   29.00       12.4138          1.9941          5.7892         0.7088
   30.00       12.0000          1.9077          5.5383         0.6781
   31.00       11.6129         17.8026         51.6837         6.3283
   32.00       11.2500         47.0397        136.5634        16.7213
   33.00       10.9091         81.4110        236.3486        28.9394
   34.00       10.5882        109.2861        317.2742        38.8482
   35.00       10.2857        119.6415        347.3376        42.5293
   36.00       10.0000        106.7609        309.9432        37.9506
   37.00        9.7297         73.9033        214.5526        26.2706
   38.00        9.4737         34.3329         99.6737        12.2044
   39.00        9.2308          8.8295         25.6334         3.1386
   40.00        9.0000         19.9678         57.9696         7.0980
   41.00        8.7805         84.6812        245.8424        30.1019
   42.00        8.5714        207.4472        602.2509        73.7418
   43.00        8.3721        376.5150       1093.0806       133.8408
   44.00        8.1818        564.8146       1639.7430       200.7762
   45.00        8.0000        735.7631       2136.0327       261.5438
   46.00        7.8261        852.5515       2475.0872       303.0589
   47.00        7.6596        888.2440       2578.7080       315.7466
   48.00        7.5000        833.5787       2420.0062       296.3145
   49.00        7.3469        699.9698       2032.1192       248.8202
   50.00        7.2000        516.6507       1499.9159       183.6553
   51.00        7.0588        322.7651        937.0364       114.7342
   52.00        6.9231        156.8138        455.2544        55.7430
   53.00        6.7925         46.6963        135.5665        16.5993
   54.00        6.6667          3.3331          9.6765         1.1848
   55.00        6.5455         19.6188         56.9564         6.9739
   56.00        6.4286         74.6760        216.7958        26.5453
   57.00        6.3158        141.6744        411.3024        50.3614
   58.00        6.2069        196.4410        570.2982        69.8294
   59.00        6.1017        224.0439        650.4337        79.6415
   60.00        6.0000        221.4619        642.9377        78.7237
   61.00        5.9016        195.9636        568.9122        69.6597
   62.00        5.8065        160.3491        465.5179        56.9997
   63.00        5.7143        127.1886        369.2479        45.2121
   64.00        5.6250        104.3097        302.8270        37.0793
   65.00        5.5385         93.0491        270.1358        33.0764
   66.00        5.4545         89.5409        259.9509        31.8294
   67.00        5.3731         88.0723        255.6873        31.3073
   68.00        5.2941         84.7924        246.1653        30.1414
   69.00        5.2174         80.0685        232.4511        28.4622
   70.00        5.1429         78.5055        227.9135        27.9066
   71.00        5.0704         86.7249        251.7756        30.8283
   72.00        5.0000        109.9949        319.3320        39.1002
   73.00        4.9315        149.2718        433.3588        53.0621
   74.00        4.8649        200.0014        580.6346        71.0951
   75.00        4.8000        253.2332        735.1746        90.0175
   76.00        4.7368        298.5981        866.8759       106.1435
   77.00        4.6753        327.9081        951.9673       116.5624
   78.00        4.6154        337.9196        981.0322       120.1212
   79.00        4.5570        331.2086        961.5491       117.7356
   80.00        4.5000        314.9652        914.3921       111.9616
   81.00        4.4444        298.4138        866.3408       106.0780
   82.00        4.3902        290.0928        842.1837       103.1201
   83.00        4.3373        296.1567        859.7881       105.2757
   84.00        4.2857        320.2144        929.6313       113.8275
   85.00        4.2353        364.3160       1057.6650       129.5044
   86.00        4.1860        430.0084       1248.3800       152.8563
   87.00        4.1379        518.2534       1504.5688       184.2250
   88.00        4.0909        627.6067       1822.0381       223.0971
   89.00        4.0449        751.1339       2180.6564       267.0077
   90.00        4.0000        873.6359       2536.2985       310.5538
   91.00        3.9560        971.2814       2819.7781       345.2641
   92.00        3.9130       1015.2955       2947.5578       360.9099
   93.00        3.8710        979.9578       2844.9672       348.3484
   94.00        3.8298        853.1967       2476.9604       303.2882
   95.00        3.7895        646.3527       1876.4607       229.7608
   96.00        3.7500        398.9623       1158.2485       141.8203
   97.00        3.7113        175.2375        508.7412        62.2922
   98.00        3.6735         51.2446        148.7709        18.2161
   99.00        3.6364         94.9698        275.7118        33.7592
  100.00        3.6000        344.4531        999.9999       122.4437
  101.00        3.5644        790.7995       2295.8117       281.1077
  102.00        3.5294       1372.3630       3984.1795       487.8377
  103.00        3.4951       1983.6354       5758.7964       705.1284
  104.00        3.4615       2498.0513       7252.2243       887.9893
  105.00        3.4286       2799.3813       8127.0315       995.1039
  106.00        3.3962       2813.1548       8167.0179      1000.0000
  107.00        3.3645       2528.7942       7341.4757       898.9176
  108.00        3.3333       2005.3651       5821.8811       712.8528
  109.00        3.3028       1358.4189       3943.6976       482.8810
  110.00        3.2727        731.0293       2122.2897       259.8610
  111.00        3.2432        256.9702        746.0238        91.3459
  112.00        3.2143         26.5027         76.9414         9.4210
  113.00        3.1858         64.5469        187.3895        22.9447
  114.00        3.1579        327.2816        950.1484       116.3397
  115.00        3.1304        717.6637       2083.4873       255.1099
  116.00        3.1034       1114.7037       3236.1552       396.2469
  117.00        3.0769       1407.4244       4085.9681       500.3011
  118.00        3.0508       1523.4375       4422.7717       541.5406
  119.00        3.0252       1444.2439       4192.8606       513.3894
  120.00        3.0000       1203.8871       3495.0680       427.9491
  121.00        2.9752        872.8741       2534.0868       310.2830
  122.00        2.9508        533.6472       1549.2594       189.6971
  123.00        2.9268        255.9197        742.9739        90.9725
  124.00        2.9032         79.3897        230.4804        28.2209
  125.00        2.8800          8.2256         23.8802         2.9240
  126.00        2.8571         17.4090         50.5410         6.1884
  127.00        2.8346         67.1493        194.9447        23.8697
  128.00        2.8125        119.3623        346.5270        42.4301
  129.00        2.7907        150.2831        436.2948        53.4216
  130.00        2.7692        155.4121        451.1850        55.2448
  131.00        2.7481        146.2269        424.5190        51.9797
  132.00        2.7273        141.1835        409.8773        50.1869
  133.00        2.7068        155.3596        451.0327        55.2261
  134.00        2.6866        193.1040        560.6104        68.6432
  135.00        2.6667        246.4066        715.3560        87.5908
  136.00        2.6471        299.1452        868.4642       106.3380
  137.00        2.6277        334.9611        972.4432       119.0696
  138.00        2.6087        345.1595       1002.0507       122.6948
  139.00        2.5899        333.2097        967.3586       118.4470
  140.00        2.5714        313.9498        911.4442       111.6006
  141.00        2.5532        307.8214        893.6526       109.4221
  142.00        2.5352        332.4756        965.2274       118.1860
  143.00        2.5175        395.1055       1147.0516       140.4493
  144.00        2.5000        488.5400       1418.3062       173.6627
  145.00        2.4828        592.6343       1720.5078       210.6654
  146.00        2.4658        680.4512       1975.4537       241.8819
  147.00        2.4490        726.9358       2110.4056       258.4059
  148.00        2.4324        716.9276       2081.3503       254.8483
  149.00        2.4161        649.6954       1886.1649       230.9490
  150.00        2.4000        538.5751       1563.5657       191.4488
  151.00        2.3841        406.1069       1178.9904       144.3600
  152.00        2.3684        276.6780        803.2385        98.3515
  153.00        2.3529        169.4094        491.8213        60.2204
  154.00        2.3377         93.7342        272.1247        33.3200
  155.00        2.3226         48.9149        142.0074        17.3879
  156.00        2.3077         27.1870         78.9280         9.6642
  157.00        2.2930         18.9001         54.8699         6.7185
  158.00        2.2785         17.4241         50.5848         6.1938
  159.00        2.2642         21.8956         63.5663         7.7833
  160.00        2.2500         36.8985        107.1220        13.1164
  161.00        2.2360         69.4607        201.6550        24.6914
  162.00        2.2222        124.7971        362.3050        44.3620
  163.00        2.2086        202.6402        588.2954        72.0331
  164.00        2.1951        295.6666        858.3653       105.1014
  165.00        2.1818        390.6308       1134.0609       138.8586
  166.00        2.1687        471.7490       1369.5594       167.6939
  167.00        2.1557        525.0470       1524.2916       186.6399
  168.00        2.1429        542.1178       1573.8508       192.7081
  169.00        2.1302        522.0520       1515.5967       185.5753
  170.00        2.1176        471.0583       1367.5541       167.4484
  171.00        2.1053        400.1390       1161.6646       142.2385
  172.00        2.0930        321.8066        934.2537       114.3935
  173.00        2.0809        246.9986        717.0746        87.8013
  174.00        2.0690        183.0930        531.5469        65.0846
  175.00        2.0571        133.3751        387.2083        47.4112
  176.00        2.0455         97.7429        283.7626        34.7449
  177.00        2.0339         74.0710        215.0394        26.3302
  178.00        2.0225         59.6020        173.0337        21.1869
  179.00        2.0112         51.9424        150.7967        18.4641
  180.00        2.0000         49.5616        143.8849        17.6178




a1 (ps OLI)  QVIGFFQSLPNIINEALNIALICVALIAILKGIVNIWKSGLIQLFIFLILAGR    Length:  53  aa.


Amphipathic Index:   2.27923      Mean hydrophobicity:    2.3828


Power Spectrum Data


 Frequency      Period         Power        Norm. Power    Norm. Power
                             (100ø=1000)  (Max.Power=1000)
    1.00      360.0000         26.9311         31.1658        12.2676
    2.00      180.0000         94.2017        109.0143        42.9104
    3.00      120.0000        167.8261        194.2156        76.4475
    4.00       90.0000        210.1512        243.1960        95.7273
    5.00       72.0000        199.2287        230.5560        90.7519
    6.00       60.0000        141.6552        163.9295        64.5262
    7.00       51.4286         72.4187         83.8060        32.9879
    8.00       45.0000         41.1681         47.6415        18.7527
    9.00       40.0000         90.8573        105.1440        41.3870
   10.00       36.0000        238.5987        276.1167       108.6856
   11.00       32.7273        467.5344        541.0509       212.9695
   12.00       30.0000        732.9291        848.1771       333.8610
   13.00       27.6923        978.5552       1132.4261       445.7477
   14.00       25.7143       1154.8928       1336.4916       526.0723
   15.00       24.0000       1231.2667       1424.8748       560.8619
   16.00       22.5000       1198.9913       1387.5243       546.1599
   17.00       21.1765       1068.2306       1236.2024       486.5963
   18.00       20.0000        863.6392        999.4405       393.4016
   19.00       18.9474        621.5685        719.3058       283.1345
   20.00       18.0000        387.1404        448.0155       176.3487
   21.00       17.1429        207.0720        239.6326        94.3246
   22.00       16.3636        116.6039        134.9390        53.1150
   23.00       15.6522        124.8708        144.5059        56.8807
   24.00       15.0000        207.7191        240.3815        94.6194
   25.00       14.4000        315.5345        365.1501       143.7311
   26.00       13.8462        395.4532        457.6354       180.1353
   27.00       13.3333        417.2253        482.8311       190.0529
   28.00       12.8571        387.3807        448.2936       176.4582
   29.00       12.4138        341.7846        395.5278       155.6884
   30.00       12.0000        319.9183        370.2232       145.7280
   31.00       11.6129        336.8497        389.8170       153.4405
   32.00       11.2500        371.7482        430.2030       169.3373
   33.00       10.9091        381.7763        441.8080       173.9053
   34.00       10.5882        333.0744        385.4480       151.7208
   35.00       10.2857        227.8634        263.6933       103.7955
   36.00       10.0000        107.8678        124.8293        49.1355
   37.00        9.7297         29.6304         34.2896        13.4971
   38.00        9.4737         27.0612         31.3164        12.3268
   39.00        9.2308         86.9852        100.6630        39.6232
   40.00        9.0000        156.3550        180.9407        71.2222
   41.00        8.7805        178.8402        206.9616        81.4646
   42.00        8.5714        137.4296        159.0394        62.6014
   43.00        8.3721         73.3043         84.8309        33.3913
   44.00        8.1818         65.0923         75.3276        29.6506
   45.00        8.0000        178.5404        206.6146        81.3280
   46.00        7.8261        417.6509        483.3236       190.2467
   47.00        7.6596        709.8842        821.5085       323.3637
   48.00        7.5000        938.0438       1085.5447       427.2941
   49.00        7.3469       1002.2367       1159.8314       456.5350
   50.00        7.2000        875.6602       1013.3517       398.8774
   51.00        7.0588        620.7996        718.4160       282.7843
   52.00        6.9231        356.3791        412.4172       162.3364
   53.00        6.7925        194.8733        225.5158        88.7679
   54.00        6.6667        187.0597        216.4735        85.2087
   55.00        6.5455        303.9353        351.7270       138.4474
   56.00        6.4286        462.3560        535.0582       210.6106
   57.00        6.3158        574.9617        665.3704       261.9043
   58.00        6.2069        593.4362        686.7499       270.3198
   59.00        6.1017        522.6288        604.8085       238.0659
   60.00        6.0000        403.9360        467.4521       183.9994
   61.00        5.9016        284.7659        329.5433       129.7155
   62.00        5.8065        195.3751        226.0965        88.9965
   63.00        5.7143        144.1976        166.8717        65.6843
   64.00        5.6250        127.3003        147.3174        57.9873
   65.00        5.5385        138.7753        160.5967        63.2144
   66.00        5.4545        172.2025        199.2801        78.4410
   67.00        5.3731        214.5105        248.2408        97.7130
   68.00        5.2941        242.4481        280.5714       110.4390
   69.00        5.2174        230.6945        266.9696       105.0851
   70.00        5.1429        170.1099        196.8585        77.4878
   71.00        5.0704         83.3905         96.5031        37.9857
   72.00        5.0000         23.2305         26.8833        10.5819
   73.00        4.9315         48.1563         55.7285        21.9360
   74.00        4.8649        187.1846        216.6181        85.2656
   75.00        4.8000        414.8250        480.0533       188.9595
   76.00        4.7368        654.3852        757.2827       298.0830
   77.00        4.6753        811.2404        938.8023       369.5331
   78.00        4.6154        819.0126        947.7966       373.0735
   79.00        4.5570        672.9330        778.7470       306.5318
   80.00        4.5000        431.9876        499.9146       196.7773
   81.00        4.4444        189.9896        219.8641        86.5433
   82.00        4.3902         33.4417         38.7002        15.2332
   83.00        4.3373          9.6537         11.1717         4.3974
   84.00        4.2857        119.4078        138.1838        54.3922
   85.00        4.2353        331.6882        383.8439       151.0893
   86.00        4.1860        605.3406        700.5262       275.7424
   87.00        4.1379        901.9729       1043.8018       410.8632
   88.00        4.0909       1184.9004       1371.2177       539.7413
   89.00        4.0449       1411.7008       1633.6809       643.0525
   90.00        4.0000       1533.3247       1774.4293       698.4542
   91.00        3.9560       1506.9521       1743.9098       686.4411
   92.00        3.9130       1317.7679       1524.9777       600.2646
   93.00        3.8710        995.8043       1152.3876       453.6050
   94.00        3.8298        614.9796        711.6809       280.1332
   95.00        3.7895        271.8379        314.5825       123.8266
   96.00        3.7500         53.9605         62.4454        24.5799
   97.00        3.7113         13.7842         15.9517         6.2789
   98.00        3.6735        159.0409        184.0490        72.4457
   99.00        3.6364        459.9717        532.2990       209.5245
  100.00        3.6000        864.1227        999.9999       393.6218
  101.00        3.5644       1308.2797       1513.9975       595.9425
  102.00        3.5294       1723.8389       1994.9005       785.2365
  103.00        3.4951       2040.4116       2361.2521       929.4405
  104.00        3.4615       2195.3118       2540.5092      1000.0000
  105.00        3.4286       2151.0601       2489.2992       979.8426
  106.00        3.3962       1913.4652       2214.3442       871.6143
  107.00        3.3645       1537.3522       1779.0901       700.2888
  108.00        3.3333       1111.2119       1285.9422       506.1750
  109.00        3.3028        724.5889        838.5255       330.0620
  110.00        3.2727        434.4956        502.8170       197.9198
  111.00        3.2432        250.2888        289.6450       114.0106
  112.00        3.2143        146.4549        169.4839        66.7126
  113.00        3.1858         95.1688        110.1334        43.3509
  114.00        3.1579         96.6164        111.8087        44.0103
  115.00        3.1304        184.9416        214.0224        84.2439
  116.00        3.1034        402.6374        465.9493       183.4078
  117.00        3.0769        757.5760        876.6995       345.0881
  118.00        3.0508       1190.9083       1378.1703       542.4780
  119.00        3.0252       1580.8418       1829.4181       720.0990
  120.00        3.0000       1787.4413       2068.5039       814.2084
  121.00        2.9752       1718.4366       1988.6488       782.7757
  122.00        2.9508       1380.8730       1598.0057       629.0100
  123.00        2.9268        888.2144       1027.8799       404.5960
  124.00        2.9032        415.3411        480.6506       189.1946
  125.00        2.8800        122.0596        141.2526        55.6001
  126.00        2.8571         83.2130         96.2977        37.9049
  127.00        2.8346        260.2271        301.1460       118.5377
  128.00        2.8125        526.9955        609.8618       240.0550
  129.00        2.7907        734.7827        850.3222       334.7054
  130.00        2.7692        781.9208        904.8724       356.1775
  131.00        2.7481        654.1367        756.9951       297.9698
  132.00        2.7273        419.1013        485.0020       190.9074
  133.00        2.7068        183.3823        212.2179        83.5336
  134.00        2.6866         37.7539         43.6904        17.1975
  135.00        2.6667         19.1441         22.1544         8.7204
  136.00        2.6471        104.9574        121.4612        47.8098
  137.00        2.6277        236.7033        273.9232       107.8222
  138.00        2.6087        355.5994        411.5149       161.9813
  139.00        2.5899        429.9766        497.5874       195.8613
  140.00        2.5714        462.4984        535.2231       210.6755
  141.00        2.5532        478.0975        553.2750       217.7811
  142.00        2.5352        503.2906        582.4295       229.2570
  143.00        2.5175        549.5707        635.9868       250.3383
  144.00        2.5000        608.4188        704.0884       277.1446
  145.00        2.4828        657.6474        761.0579       299.5690
  146.00        2.4658        673.2055        779.0624       306.6560
  147.00        2.4490        639.7186        740.3099       291.4022
  148.00        2.4324        555.8318        643.2325       253.1904
  149.00        2.4161        434.0779        502.3336       197.7295
  150.00        2.4000        296.9610        343.6560       135.2705
  151.00        2.3841        170.9552        197.8367        77.8729
  152.00        2.3684         79.4090         91.8955        36.1721
  153.00        2.3529         35.4856         41.0655        16.1643
  154.00        2.3377         37.3429         43.2148        17.0103
  155.00        2.3226         68.3928         79.1471        31.1540
  156.00        2.3077        104.1369        120.5117        47.4360
  157.00        2.2930        123.6489        143.0918        56.3241
  158.00        2.2785        120.2146        139.1175        54.7597
  159.00        2.2642        104.7433        121.2135        47.7123
  160.00        2.2500         98.8464        114.3893        45.0261
  161.00        2.2360        120.6113        139.5766        54.9404
  162.00        2.2222        171.3440        198.2866        78.0500
  163.00        2.2086        232.0908        268.5855       105.7211
  164.00        2.1951        273.4619        316.4619       124.5663
  165.00        2.1818        273.9388        317.0138       124.7836
  166.00        2.1687        235.6872        272.7474       107.3593
  167.00        2.1557        187.2801        216.7286        85.3091
  168.00        2.1429        170.0495        196.7886        77.4603
  169.00        2.1302        214.8654        248.6515        97.8747
  170.00        2.1176        322.6523        373.3871       146.9733
  171.00        2.1053        460.4889        532.8976       209.7601
  172.00        2.0930        576.2651        666.8787       262.4981
  173.00        2.0809        623.9162        722.0227       284.2039
  174.00        2.0690        585.0698        677.0680       266.5088
  175.00        2.0571        475.4008        550.1542       216.5527
  176.00        2.0455        333.4778        385.9149       151.9045
  177.00        2.0339        200.2534        231.7419        91.2187
  178.00        2.0225        102.0376        118.0823        46.4798
  179.00        2.0112         46.0589         53.3013        20.9806
  180.00        2.0000         28.4391         32.9110        12.9545




a1 (ps PIC)  QIVTLIQSIPEVLQEVFNVALIIVSVLCIVKGFVNLMRCGLFQLVTFLILSGR    Length:  53  aa.


Amphipathic Index:   2.55594      Mean hydrophobicity:    2.5160


Power Spectrum Data


 Frequency      Period         Power        Norm. Power    Norm. Power
                             (100ø=1000)  (Max.Power=1000)
    1.00      360.0000         33.2150         18.1999        10.4560
    2.00      180.0000        126.0076         69.0448        39.6668
    3.00      120.0000        258.0082        141.3734        81.2202
    4.00       90.0000        397.3544        217.7269       125.0860
    5.00       72.0000        507.2600        277.9488       159.6840
    6.00       60.0000        557.5428        305.5008       175.5128
    7.00       51.4286        537.0997        294.2991       169.0774
    8.00       45.0000        460.4580        252.3040       144.9508
    9.00       40.0000        363.2218        199.0243       114.3411
   10.00       36.0000        287.1079        157.3183        90.3807
   11.00       32.7273        261.6408        143.3638        82.3638
   12.00       30.0000        291.9594        159.9766        91.9080
   13.00       27.6923        358.7404        196.5687       112.9304
   14.00       25.7143        429.2238        235.1895       135.1184
   15.00       24.0000        472.4085        258.8522       148.7128
   16.00       22.5000        470.4101        257.7572       148.0837
   17.00       21.1765        421.8169        231.1309       132.7867
   18.00       20.0000        338.2931        185.3648       106.4937
   19.00       18.9474        238.6389        130.7601        75.1228
   20.00       18.0000        143.5804         78.6736        45.1987
   21.00       17.1429         71.5795         39.2214        22.5330
   22.00       16.3636         34.3632         18.8290        10.8174
   23.00       15.6522         32.3256         17.7125        10.1760
   24.00       15.0000         52.8158         28.9400        16.6263
   25.00       14.4000         75.0302         41.1122        23.6193
   26.00       13.8462         81.6831         44.7575        25.7136
   27.00       13.3333         71.6569         39.2638        22.5574
   28.00       12.8571         64.3687         35.2703        20.2631
   29.00       12.4138         89.8001         49.2052        28.2688
   30.00       12.0000        167.4635         91.7602        52.7170
   31.00       11.6129        287.0408        157.2815        90.3596
   32.00       11.2500        405.4636        222.1703       127.6387
   33.00       10.9091        466.4784        255.6028       146.8460
   34.00       10.5882        433.6767        237.6294       136.5201
   35.00       10.2857        316.6493        173.5053        99.6803
   36.00       10.0000        171.3336         93.8808        53.9353
   37.00        9.7297         70.7070         38.7433        22.2584
   38.00        9.4737         61.8078         33.8671        19.4569
   39.00        9.2308        136.1862         74.6221        42.8710
   40.00        9.0000        234.4798        128.4812        73.8135
   41.00        8.7805        284.5925        155.9400        89.5889
   42.00        8.5714        250.2701        137.1333        78.7843
   43.00        8.3721        158.2260         86.6986        49.8091
   44.00        8.1818         84.3047         46.1940        26.5389
   45.00        8.0000        105.4397         57.7748        33.1921
   46.00        7.8261        247.3536        135.5353        77.8662
   47.00        7.6596        462.2851        253.3051       145.5260
   48.00        7.5000        652.7827        357.6867       205.4941
   49.00        7.3469        728.1580        398.9879       229.2220
   50.00        7.2000        658.7273        360.9439       207.3654
   51.00        7.0588        493.7678        270.5558       155.4366
   52.00        6.9231        331.8990        181.8612       104.4808
   53.00        6.7925        262.5280        143.8500        82.6430
   54.00        6.6667        314.6999        172.4371        99.0666
   55.00        6.5455        443.9661        243.2674       139.7592
   56.00        6.4286        563.1330        308.5639       177.2726
   57.00        6.3158        595.5731        326.3392       187.4847
   58.00        6.2069        517.6392        283.6360       162.9513
   59.00        6.1017        366.4024        200.7670       115.3424
   60.00        6.0000        212.5386        116.4587        66.9065
   61.00        5.9016        119.3675         65.4064        37.5765
   62.00        5.8065        114.2804         62.6190        35.9751
   63.00        5.7143        186.5090        102.1960        58.7125
   64.00        5.6250        305.6602        167.4839        96.2209
   65.00        5.5385        442.9287        242.6990       139.4326
   66.00        5.4545        579.2843        317.4138       182.3570
   67.00        5.3731        698.6682        382.8292       219.9387
   68.00        5.2941        777.7253        426.1479       244.8256
   69.00        5.2174        786.2912        430.8415       247.5221
   70.00        5.1429        702.9688        385.1857       221.2925
   71.00        5.0704        535.8112        293.5931       168.6718
   72.00        5.0000        330.9280        181.3292       104.1752
   73.00        4.9315        158.0292         86.5907        49.7471
   74.00        4.8649         77.6084         42.5249        24.4309
   75.00        4.8000        108.4600         59.4297        34.1429
   76.00        4.7368        216.1177        118.4198        68.0332
   77.00        4.6753        330.6616        181.1832       104.0913
   78.00        4.6154        384.0992        210.4639       120.9133
   79.00        4.5570        345.4658        189.2950       108.7516
   80.00        4.5000        233.8508        128.1365        73.6155
   81.00        4.4444        103.9916         56.9813        32.7362
   82.00        4.3902         15.8401          8.6794         4.9864
   83.00        4.3373          7.5505          4.1372         2.3769
   84.00        4.2857         86.1203         47.1889        27.1104
   85.00        4.2353        236.2199        129.4347        74.3613
   86.00        4.1860        435.7455        238.7630       137.1714
   87.00        4.1379        664.4646        364.0877       209.1715
   88.00        4.0909        900.3564        493.3425       283.4295
   89.00        4.0449       1109.9645        608.1955       349.4135
   90.00        4.0000       1245.2007        682.2970       391.9855
   91.00        3.9560       1255.1489        687.7480       395.1172
   92.00        3.9130       1110.3453        608.4042       349.5334
   93.00        3.8710        826.8459        453.0631       260.2886
   94.00        3.8298        475.1858        260.3740       149.5871
   95.00        3.7895        166.4650         91.2131        52.4027
   96.00        3.7500         19.5052         10.6877         6.1402
   97.00        3.7113        121.9362         66.8139        38.3852
   98.00        3.6735        499.7932        273.8574       157.3334
   99.00        3.6364       1105.2614        605.6184       347.9330
  100.00        3.6000       1825.0127       1000.0000       574.5086
  101.00        3.5644       2506.2041       1373.2530       788.9456
  102.00        3.5294       2994.5171       1640.8198       942.6651
  103.00        3.4951       3176.6499       1740.6180      1000.0000
  104.00        3.4615       3016.7886       1653.0233       949.6761
  105.00        3.4286       2573.7161       1410.2455       810.1982
  106.00        3.3962       1987.1060       1088.8176       625.5351
  107.00        3.3645       1430.8909        784.0443       450.4402
  108.00        3.3333       1047.3055        573.8621       329.6887
  109.00        3.3028        889.0515        487.1481       279.8708
  110.00        3.2727        899.3673        492.8006       283.1182
  111.00        3.2432        945.1591        517.8918       297.5333
  112.00        3.2143        891.6066        488.5482       280.6751
  113.00        3.1858        681.7081        373.5361       214.5997
  114.00        3.1579        376.7574        206.4410       118.6021
  115.00        3.1304        131.0211         71.7919        41.2451
  116.00        3.1034        108.9939         59.7223        34.3110
  117.00        3.0769        387.5916        212.3775       122.0127
  118.00        3.0508        898.2097        492.1663       282.7538
  119.00        3.0252       1445.2528        791.9138       454.9613
  120.00        3.0000       1796.8574        984.5725       565.6454
  121.00        2.9752       1802.3085        987.5594       567.3614
  122.00        2.9508       1473.0162        807.1266       463.7012
  123.00        2.9268        981.1534        537.6145       308.8642
  124.00        2.9032        573.7935        314.4052       180.6285
  125.00        2.8800        446.6188        244.7209       140.5943
  126.00        2.8571        644.0490        352.9011       202.7447
  127.00        2.8346       1038.8589        569.2338       327.0297
  128.00        2.8125       1401.5090        767.9448       441.1909
  129.00        2.7907       1521.2898        833.5776       478.8975
  130.00        2.7692       1314.5449        720.2936       413.8149
  131.00        2.7481        863.9427        473.3900       271.9666
  132.00        2.7273        371.2018        203.3968       116.8532
  133.00        2.7068         51.9755         28.4795        16.3617
  134.00        2.6866         30.1594         16.5256         9.4941
  135.00        2.6667        285.4196        156.3932        89.8492
  136.00        2.6471        675.9956        370.4060       212.8014
  137.00        2.6277       1018.0082        557.8088       320.4660
  138.00        2.6087       1175.2645        643.9761       369.9698
  139.00        2.5899       1113.3619        610.0571       350.4830
  140.00        2.5714        896.1640        491.0453       282.1098
  141.00        2.5532        635.6431        348.2952       200.0986
  142.00        2.5352        428.7344        234.9213       134.9643
  143.00        2.5175        316.0768        173.1916        99.5000
  144.00        2.5000        279.5715        153.1888        88.0083
  145.00        2.4828        271.3607        148.6898        85.4235
  146.00        2.4658        250.8574        137.4552        78.9692
  147.00        2.4490        206.7549        113.2896        65.0858
  148.00        2.4324        154.6766         84.7537        48.6917
  149.00        2.4161        117.9060         64.6056        37.1165
  150.00        2.4000        107.6766         59.0005        33.8963
  151.00        2.3841        116.4384         63.8014        36.6545
  152.00        2.3684        126.2515         69.1784        39.7436
  153.00        2.3529        123.6129         67.7326        38.9130
  154.00        2.3377        108.8145         59.6240        34.2545
  155.00        2.3226         93.5272         51.2474        29.4421
  156.00        2.3077         89.7432         49.1740        28.2509
  157.00        2.2930         99.4001         54.4654        31.2909
  158.00        2.2785        112.8084         61.8124        35.5118
  159.00        2.2642        116.8574         64.0310        36.7864
  160.00        2.2500        106.4537         58.3304        33.5113
  161.00        2.2360         90.2665         49.4608        28.4156
  162.00        2.2222         86.1298         47.1941        27.1134
  163.00        2.2086        109.0617         59.7594        34.3323
  164.00        2.1951        160.2399         87.8021        50.4430
  165.00        2.1818        224.6442        123.0919        70.7173
  166.00        2.1687        279.0561        152.9064        87.8460
  167.00        2.1557        305.0739        167.1626        96.0364
  168.00        2.1429        298.6632        163.6499        94.0183
  169.00        2.1302        270.4736        148.2037        85.1443
  170.00        2.1176        237.5379        130.1568        74.7762
  171.00        2.1053        212.4634        116.4175        66.8828
  172.00        2.0930        197.1714        108.0384        62.0690
  173.00        2.0809        184.4330        101.0585        58.0590
  174.00        2.0690        164.9351         90.3748        51.9211
  175.00        2.0571        134.3415         73.6113        42.2903
  176.00        2.0455         95.7722         52.4776        30.1488
  177.00        2.0339         57.0618         31.2665        17.9629
  178.00        2.0225         25.8621         14.1709         8.1413
  179.00        2.0112          6.4706          3.5455         2.0369
  180.00        2.0000          0.0088          0.0048         0.0028




a1 (ps SAB)  QLFSFFEEVPNIIHEAINIALIAVSLIAALKGMINLWKSGLFQLIFFLTLAGR    Length:  53  aa.


Amphipathic Index:   1.84069      Mean hydrophobicity:    2.0672


Power Spectrum Data


 Frequency      Period         Power        Norm. Power    Norm. Power
                             (100ø=1000)  (Max.Power=1000)
    1.00      360.0000          9.4463         15.0480         3.7071
    2.00      180.0000         34.0187         54.1918        13.3503
    3.00      120.0000         63.6731        101.4313        24.9879
    4.00       90.0000         85.6496        136.4399        33.6124
    5.00       72.0000         89.5717        142.6879        35.1516
    6.00       60.0000         72.5198        115.5241        28.4597
    7.00       51.4286         41.9761         66.8680        16.4731
    8.00       45.0000         14.8827         23.7082         5.8406
    9.00       40.0000         12.5075         19.9245         4.9085
   10.00       36.0000         52.7521         84.0342        20.7021
   11.00       32.7273        142.8533        227.5655        56.0615
   12.00       30.0000        275.3046        438.5606       108.0408
   13.00       27.6923        428.3878        682.4224       168.1170
   14.00       25.7143        570.9263        909.4864       224.0549
   15.00       24.0000        669.7746       1066.9519       262.8471
   16.00       22.5000        698.4044       1112.5593       274.0826
   17.00       21.1765        645.0707       1027.5985       253.1522
   18.00       20.0000        518.7197        826.3213       203.5669
   19.00       18.9474        350.0659        557.6555       137.3802
   20.00       18.0000        185.3158        295.2083        72.7255
   21.00       17.1429         72.1303        114.9037        28.3069
   22.00       16.3636         41.5477         66.1855        16.3050
   23.00       15.6522         93.6261        149.1465        36.7427
   24.00       15.0000        195.2910        311.0989        76.6402
   25.00       14.4000        294.3007        468.8214       115.4957
   26.00       13.8462        344.6978        549.1041       135.2736
   27.00       13.3333        331.2845        527.7367       130.0096
   28.00       12.8571        278.9713        444.4017       109.4798
   29.00       12.4138        239.7539        381.9283        94.0893
   30.00       12.0000        262.6195        418.3533       103.0627
   31.00       11.6129        362.6492        577.7007       142.3184
   32.00       11.2500        507.6991        808.7654       199.2420
   33.00       10.9091        631.9545       1006.7045       248.0049
   34.00       10.5882        670.0762       1067.4323       262.9654
   35.00       10.2857        592.9211        944.5242       232.6866
   36.00       10.0000        424.1426        675.6598       166.4510
   37.00        9.7297        227.9155        363.0697        89.4434
   38.00        9.4737         75.1853        119.7703        29.5058
   39.00        9.2308          8.5294         13.5873         3.3473
   40.00        9.0000         26.0005         41.4188        10.2037
   41.00        8.7805         91.9740        146.5147        36.0944
   42.00        8.5714        166.0462        264.5118        65.1634
   43.00        8.3721        230.2473        366.7843        90.3585
   44.00        8.1818        297.0214        473.1555       116.5634
   45.00        8.0000        393.8063        627.3340       154.5458
   46.00        7.8261        535.6711        853.3248       210.2193
   47.00        7.6596        705.1436       1123.2948       276.7273
   48.00        7.5000        853.3898       1359.4512       334.9052
   49.00        7.3469        922.8958       1470.1744       362.1822
   50.00        7.2000        878.0950       1398.8066       344.6006
   51.00        7.0588        725.6022       1155.8853       284.7561
   52.00        6.9231        512.4789        816.3796       201.1178
   53.00        6.7925        304.2408        484.6561       119.3966
   54.00        6.6667        155.6320        247.9220        61.0764
   55.00        6.5455         89.8328        143.1038        35.2541
   56.00        6.4286         95.2467        151.7281        37.3787
   57.00        6.3158        138.3592        220.4064        54.2978
   58.00        6.2069        183.2222        291.8732        71.9039
   59.00        6.1017        206.8898        329.5758        81.1921
   60.00        6.0000        204.8346        326.3018        80.3855
   61.00        5.9016        186.8227        297.6088        73.3169
   62.00        5.8065        167.8733        267.4224        65.8804
   63.00        5.7143        159.3462        253.8387        62.5340
   64.00        5.6250        163.3399        260.2007        64.1013
   65.00        5.5385        171.6825        273.4905        67.3753
   66.00        5.4545        169.7882        270.4728        66.6319
   67.00        5.3731        144.7821        230.6381        56.8184
   68.00        5.2941         95.4644        152.0749        37.4642
   69.00        5.2174         39.3248         62.6445        15.4327
   70.00        5.1429         11.0289         17.5691         4.3282
   71.00        5.0704         49.6941         79.1628        19.5020
   72.00        5.0000        178.5635        284.4519        70.0757
   73.00        4.9315        386.9479        616.4086       151.8543
   74.00        4.8649        625.8173        996.9279       245.5964
   75.00        4.8000        822.7457       1310.6352       322.8792
   76.00        4.7368        911.2869       1451.6814       357.6264
   77.00        4.6753        860.5939       1370.9273       337.7324
   78.00        4.6154        689.4846       1098.3500       270.5821
   79.00        4.5570        457.1061        728.1707       179.3872
   80.00        4.5000        235.4972        375.1474        92.4188
   81.00        4.4444         79.4702        126.5961        31.1874
   82.00        4.3902          9.8871         15.7502         3.8801
   83.00        4.3373         17.1653         27.3443         6.7364
   84.00        4.2857         78.9676        125.7955        30.9901
   85.00        4.2353        178.0938        283.7037        69.8913
   86.00        4.1860        308.6195        491.6313       121.1150
   87.00        4.1379        468.2916        745.9892       183.7769
   88.00        4.0909        645.6038       1028.4478       253.3615
   89.00        4.0449        813.3272       1295.6315       319.1830
   90.00        4.0000        934.5806       1488.7883       366.7678
   91.00        3.9560        977.5532       1557.2437       383.6321
   92.00        3.9130        928.6591       1479.3554       364.4440
   93.00        3.8710        795.9829       1268.0020       312.3764
   94.00        3.8298        603.4086        961.2308       236.8023
   95.00        3.7895        383.3863        610.7349       150.4565
   96.00        3.7500        176.1482        280.6043        69.1278
   97.00        3.7113         34.8085         55.4500        13.6603
   98.00        3.6735         26.0439         41.4880        10.2207
   99.00        3.6364        214.2935        341.3699        84.0976
  100.00        3.6000        627.7458       1000.0000       246.3532
  101.00        3.5644       1221.3364       1945.5907       479.3026
  102.00        3.5294       1862.9980       2967.7587       731.1170
  103.00        3.4951       2363.6289       3765.2644       927.5851
  104.00        3.4615       2548.1531       4059.2116      1000.0000
  105.00        3.4286       2337.2585       3723.2563       917.2363
  106.00        3.3962       1795.2240       2859.7945       704.5197
  107.00        3.3645       1111.2482       1770.2200       436.0994
  108.00        3.3333        516.3605        822.5630       202.6411
  109.00        3.3028        176.1630        280.6279        69.1336
  110.00        3.2727        117.5188        187.2076        46.1192
  111.00        3.2432        231.3615        368.5592        90.7958
  112.00        3.2143        351.0889        559.2851       137.7817
  113.00        3.1858        361.0489        575.1514       141.6904
  114.00        3.1579        270.1296        430.3169       106.0100
  115.00        3.1304        204.8607        326.3434        80.3958
  116.00        3.1034        324.4799        516.8969       127.3392
  117.00        3.0769        708.6371       1128.8599       278.0983
  118.00        3.0508       1287.0627       2050.2929       505.0963
  119.00        3.0252       1857.3021       2958.6850       728.8817
  120.00        3.0000       2184.6313       3480.1210       857.3391
  121.00        2.9752       2128.5500       3390.7834       835.3305
  122.00        2.9508       1722.9547       2744.6694       676.1582
  123.00        2.9268       1162.8840       1852.4760       456.3635
  124.00        2.9032        704.2961       1121.9447       276.3947
  125.00        2.8800        532.9073        848.9221       209.1347
  126.00        2.8571        674.4724       1074.4356       264.6907
  127.00        2.8346        993.4561       1582.5771       389.8730
  128.00        2.8125       1275.8790       2032.4772       500.7074
  129.00        2.7907       1345.9973       2144.1757       528.2247
  130.00        2.7692       1151.6360       1834.5578       451.9493
  131.00        2.7481        775.9000       1236.0099       304.4951
  132.00        2.7273        377.6031        601.5223       148.1870
  133.00        2.7068        101.5311        161.7392        39.8450
  134.00        2.6866         10.8965         17.3581         4.2762
  135.00        2.6667         74.4538        118.6050        29.2187
  136.00        2.6471        205.0932        326.7138        80.4870
  137.00        2.6277        318.2688        507.0027       124.9018
  138.00        2.6087        373.3027        594.6718       146.4993
  139.00        2.5899        378.2622        602.5723       148.4456
  140.00        2.5714        365.3519        582.0061       143.3791
  141.00        2.5532        360.6606        574.5329       141.5380
  142.00        2.5352        370.1772        589.6928       145.2727
  143.00        2.5175        387.3857        617.1060       152.0261
  144.00        2.5000        410.1613        653.3875       160.9641
  145.00        2.4828        448.9052        715.1067       176.1689
  146.00        2.4658        517.1192        823.7717       202.9388
  147.00        2.4490        611.8442        974.6687       240.1128
  148.00        2.4324        701.6055       1117.6587       275.3388
  149.00        2.4161        735.6243       1171.8506       288.6892
  150.00        2.4000        672.4549       1071.2216       263.8989
  151.00        2.3841        510.3343        812.9633       200.2761
  152.00        2.3684        297.3835        473.7324       116.7055
  153.00        2.3529        111.3816        177.4311        43.7107
  154.00        2.3377         18.9346         30.1628         7.4307
  155.00        2.3226         38.7920         61.7957        15.2236
  156.00        2.3077        133.0612        211.9667        52.2187
  157.00        2.2930        232.9209        371.0433        91.4077
  158.00        2.2785        283.0357        450.8763       111.0748
  159.00        2.2642        276.1193        439.8584       108.3606
  160.00        2.2500        254.8857        406.0333       100.0276
  161.00        2.2360        279.6909        445.5480       109.7622
  162.00        2.2222        382.8973        609.9560       150.2646
  163.00        2.2086        540.3840        860.8325       212.0689
  164.00        2.1951        680.1472       1083.4755       266.9177
  165.00        2.1818        724.1044       1153.4993       284.1683
  166.00        2.1687        637.3929       1015.3678       250.1392
  167.00        2.1557        453.8962        723.0573       178.1275
  168.00        2.1429        261.1935        416.0817       102.5031
  169.00        2.1302        153.3844        244.3416        60.1943
  170.00        2.1176        180.1330        286.9521        70.6916
  171.00        2.1053        322.1707        513.2184       126.4330
  172.00        2.0930        506.5423        806.9226       198.7880
  173.00        2.0809        650.2748       1035.8887       255.1945
  174.00        2.0690        704.7264       1122.6302       276.5636
  175.00        2.0571        674.6627       1074.7387       264.7654
  176.00        2.0455        603.9867        962.1517       237.0292
  177.00        2.0339        541.6232        862.8066       212.5552
  178.00        2.0225        512.0277        815.6609       200.9407
  179.00        2.0112        508.6930        810.3487       199.6320
  180.00        2.0000        511.0840        814.1576       200.5704




a1 (ps TAC)  QFISFMQEIPIFLQEALNIALVAVSLICIVKGLVNLYRCGLFQLMVFLVLAGR    Length:  53  aa.


Amphipathic Index:   1.55573      Mean hydrophobicity:    2.5857


Power Spectrum Data


 Frequency      Period         Power        Norm. Power    Norm. Power
                             (100ø=1000)  (Max.Power=1000)
    1.00      360.0000         59.6010        132.7253        36.8114
    2.00      180.0000        216.2144        481.4872       133.5405
    3.00      120.0000        411.3902        916.1235       254.0868
    4.00       90.0000        572.1100       1274.0299       353.3522
    5.00       72.0000        638.5521       1421.9897       394.3888
    6.00       60.0000        587.4553       1308.2024       362.8299
    7.00       51.4286        441.2156        982.5416       272.5079
    8.00       45.0000        257.9617        574.4541       159.3248
    9.00       40.0000        106.2460        236.5989        65.6207
   10.00       36.0000         35.7447         79.5998        22.0770
   11.00       32.7273         57.9394        129.0251        35.7851
   12.00       30.0000        145.8863        324.8737        90.1037
   13.00       27.6923        251.9766        561.1259       155.6282
   14.00       25.7143        332.9093        741.3546       205.6147
   15.00       24.0000        367.8595        819.1851       227.2010
   16.00       22.5000        361.0852        804.0995       223.0170
   17.00       21.1765        330.4578        735.8954       204.1006
   18.00       20.0000        291.8022        649.8133       180.2257
   19.00       18.9474        250.0582        556.8538       154.4434
   20.00       18.0000        201.8361        449.4682       124.6600
   21.00       17.1429        145.0447        322.9996        89.5839
   22.00       16.3636         86.4925        192.6099        53.4203
   23.00       15.6522         40.9607         91.2153        25.2985
   24.00       15.0000         22.7490         50.6597        14.0505
   25.00       14.4000         36.9045         82.1825        22.7933
   26.00       13.8462         77.2962        172.1307        47.7404
   27.00       13.3333        132.5612        295.2001        81.8737
   28.00       12.8571        193.9951        432.0071       119.8171
   29.00       12.4138        257.7760        574.0405       159.2101
   30.00       12.0000        319.3114        711.0735       197.2162
   31.00       11.6129        365.6895        814.3528       225.8607
   32.00       11.2500        375.9222        837.1400       232.1807
   33.00       10.9091        333.6042        742.9021       206.0439
   34.00       10.5882        245.5752        546.8706       151.6746
   35.00       10.2857        151.7316        337.8906        93.7140
   36.00       10.0000        113.3080        252.3252        69.9824
   37.00        9.7297        180.5169        401.9925       111.4926
   38.00        9.4737        357.0021        795.0068       220.4951
   39.00        9.2308        585.7526       1304.4106       361.7783
   40.00        9.0000        771.4892       1718.0268       476.4947
   41.00        8.7805        832.0902       1852.9790       513.9237
   42.00        8.5714        750.3587       1670.9714       463.4439
   43.00        8.3721        592.6011       1319.6614       366.0081
   44.00        8.1818        477.6356       1063.6451       295.0020
   45.00        8.0000        509.8902       1135.4728       314.9234
   46.00        7.8261        714.5021       1591.1224       441.2977
   47.00        7.6596       1014.2286       2258.5823       626.4178
   48.00        7.5000       1264.8403       2816.6688       781.2030
   49.00        7.3469       1330.8760       2963.7234       821.9886
   50.00        7.2000       1158.8859       2580.7192       715.7624
   51.00        7.0588        806.2257       1795.3814       497.9490
   52.00        6.9231        409.8010        912.5845       253.1053
   53.00        6.7925        114.3577        254.6628        70.6307
   54.00        6.6667          2.2270          4.9593         1.3755
   55.00        6.5455         62.7709        139.7843        38.7692
   56.00        6.4286        213.8032        476.1177       132.0512
   57.00        6.3158        356.3495        793.5535       220.0921
   58.00        6.2069        427.4993        951.9968       264.0363
   59.00        6.1017        422.4753        940.8089       260.9333
   60.00        6.0000        379.7840        845.7398       234.5659
   61.00        5.9016        346.1961        770.9430       213.8210
   62.00        5.8065        346.9150        772.5439       214.2650
   63.00        5.7143        377.3940        840.4175       233.0898
   64.00        5.6250        415.6091        925.5186       256.6926
   65.00        5.5385        440.5353        981.0267       272.0877
   66.00        5.4545        442.3343        985.0328       273.1988
   67.00        5.3731        420.1198        935.5634       259.4785
   68.00        5.2941        374.4906        833.9519       231.2965
   69.00        5.2174        305.0996        679.4253       188.4386
   70.00        5.1429        216.7496        482.6790       133.8710
   71.00        5.0704        127.4815        283.8881        78.7364
   72.00        5.0000         67.9885        151.4034        41.9917
   73.00        4.9315         67.5941        150.5251        41.7481
   74.00        4.8649        133.6919        297.7180        82.5721
   75.00        4.8000        239.4733        533.2823       147.9058
   76.00        4.7368        331.8047        738.8948       204.9325
   77.00        4.6753        358.2012        797.6771       221.2357
   78.00        4.6154        297.8545        663.2912       183.9638
   79.00        4.5570        176.9711        394.0964       109.3026
   80.00        4.5000         57.4631        127.9644        35.4909
   81.00        4.4444          4.8674         10.8392         3.0063
   82.00        4.3902         54.8424        122.1284        33.8723
   83.00        4.3373        198.3401        441.6829       122.5008
   84.00        4.2857        392.9949        875.1591       242.7254
   85.00        4.2353        591.0816       1316.2777       365.0696
   86.00        4.1860        764.3675       1702.1675       472.0961
   87.00        4.1379        909.9838       2026.4400       562.0331
   88.00        4.0909       1035.8995       2306.8413       639.8024
   89.00        4.0449       1139.2878       2537.0764       703.6581
   90.00        4.0000       1195.6563       2662.6030       738.4729
   91.00        3.9560       1168.2325       2601.5333       721.5352
   92.00        3.9130       1032.0596       2298.2901       637.4307
   93.00        3.8710        796.3695       1773.4327       491.8615
   94.00        3.8298        509.5951       1134.8157       314.7411
   95.00        3.7895        242.9086        540.9324       150.0276
   96.00        3.7500         62.0226        138.1179        38.3070
   97.00        3.7113          3.6250          8.0725         2.2389
   98.00        3.6735         68.1908        151.8539        42.1167
   99.00        3.6364        229.2287        510.4686       141.5785
  100.00        3.6000        449.0554       1000.0000       277.3500
  101.00        3.5644        689.7723       1536.0517       426.0239
  102.00        3.5294        915.2438       2038.1534       565.2818
  103.00        3.4951       1089.0525       2425.2075       672.6312
  104.00        3.4615       1176.9852       2621.0246       726.9411
  105.00        3.4286       1157.6897       2578.0554       715.0236
  106.00        3.3962       1035.8849       2306.8087       639.7933
  107.00        3.3645        846.9288       1886.0229       523.0884
  108.00        3.3333        645.0785       1436.5232       398.4197
  109.00        3.3028        478.9701       1066.6169       295.8262
  110.00        3.2727        368.6372        820.9170       227.6813
  111.00        3.2432        300.1422        668.3857       185.3768
  112.00        3.2143        243.7167        542.7319       150.5267
  113.00        3.1858        185.0706        412.1331       114.3051
  114.00        3.1579        148.2685        330.1786        91.5750
  115.00        3.1304        191.1482        425.6673       118.0588
  116.00        3.1034        370.7029        825.5171       228.9572
  117.00        3.0769        696.5623       1551.1724       430.2176
  118.00        3.0508       1102.1799       2454.4409       680.7391
  119.00        3.0252       1456.8059       3244.1564       899.7667
  120.00        3.0000       1619.0930       3605.5530      1000.0000
  121.00        2.9752       1507.7089       3357.5120       931.2059
  122.00        2.9508       1151.1139       2563.4118       710.9622
  123.00        2.9268        686.5955       1528.9773       424.0618
  124.00        2.9032        304.3900        677.8451       188.0003
  125.00        2.8800        162.2517        361.3178       100.2115
  126.00        2.8571        312.5670        696.0544       193.0507
  127.00        2.8346        678.5247       1511.0045       419.0771
  128.00        2.8125       1090.9337       2429.3968       673.7931
  129.00        2.7907       1366.6464       3043.3804       844.0815
  130.00        2.7692       1389.5951       3094.4848       858.2553
  131.00        2.7481       1156.2000       2574.7379       714.1035
  132.00        2.7273        766.7734       1707.5251       473.5821
  133.00        2.7068        372.0425        828.5003       229.7845
  134.00        2.6866        104.3067        232.2803        64.4229
  135.00        2.6667         26.4786         58.9651        16.3540
  136.00        2.6471        119.3109        265.6931        73.6900
  137.00        2.6277        306.0865        681.6230       189.0481
  138.00        2.6087        496.6551       1105.9996       306.7490
  139.00        2.5899        627.0439       1396.3620       387.2810
  140.00        2.5714        677.8082       1509.4089       418.6345
  141.00        2.5532        667.9759       1487.5133       412.5618
  142.00        2.5352        633.6686       1411.1145       391.3726
  143.00        2.5175        605.3652       1348.0857       373.8916
  144.00        2.5000        594.6347       1324.1901       367.2641
  145.00        2.4828        593.6113       1321.9111       366.6320
  146.00        2.4658        583.6506       1299.7296       360.4800
  147.00        2.4490        546.6956       1217.4347       337.6555
  148.00        2.4324        474.0194       1055.5923       292.7685
  149.00        2.4161        369.9414        823.8213       228.4868
  150.00        2.4000        250.5369        557.9198       154.7390
  151.00        2.3841        138.3915        308.1836        85.4747
  152.00        2.3684         54.8192        122.0767        33.8580
  153.00        2.3529         11.7014         26.0578         7.2271
  154.00        2.3377          6.1874         13.7787         3.8215
  155.00        2.3226         21.6598         48.2341        13.3777
  156.00        2.3077         36.2825         80.7974        22.4092
  157.00        2.2930         36.2878         80.8092        22.4124
  158.00        2.2785         27.1470         60.4536        16.7668
  159.00        2.2642         35.0218         77.9899        21.6305
  160.00        2.2500         95.0567        211.6815        58.7098
  161.00        2.2360        230.6654        513.6680       142.4658
  162.00        2.2222        434.6306        967.8775       268.4408
  163.00        2.2086        663.9291       1478.5015       410.0624
  164.00        2.1951        853.9453       1901.6481       527.4220
  165.00        2.1818        946.9958       2108.8619       584.8928
  166.00        2.1687        920.9999       2050.9716       568.8369
  167.00        2.1557        802.5252       1787.1408       495.6635
  168.00        2.1429        655.9841       1460.8088       405.1553
  169.00        2.1302        553.5462       1232.6902       341.8866
  170.00        2.1176        540.9964       1204.7431       334.1355
  171.00        2.1053        617.0539       1374.1153       381.1109
  172.00        2.0930        736.1711       1639.3770       454.6812
  173.00        2.0809        832.0872       1852.9723       513.9218
  174.00        2.0690        848.9387       1890.4989       524.3298
  175.00        2.0571        764.2766       1701.9651       472.0400
  176.00        2.0455        594.6077       1324.1300       367.2474
  177.00        2.0339        384.3956        856.0093       237.4142
  178.00        2.0225        187.2602        417.0091       115.6575
  179.00        2.0112         49.3465        109.8896        30.4779
  180.00        2.0000          0.0816          0.1817         0.0504